Record Length,8000,,Source,CH1,CH2
Sample Interval,CH1:0.0000020000000 CH2:0.0000020000000,,Second,Volt,Volt
Vertical Units,CH1:V CH2:V,,-0.00800000038,3.96000,0.05200
Vertical Scale,CH1:0.50 CH2:0.05,,-0.00799799990,3.94000,0.05200
Vertical Offset,CH1:-4.02000 CH2:0.03800,,-0.00799600035,3.96000,0.05200
Horizontal Units,s,,-0.00799399987,3.96000,0.05000
Horizontal Scale,0.0010000000,,-0.00799200032,3.94000,0.05200
Model Number,SDS1072CML+,,-0.00798999984,3.96000,0.05200
Serial Number,SDS10BA3163350,,-0.00798800029,3.94000,0.05000
Software Version,6.01.01.16,,-0.00798599981,3.94000,0.05200
,,,-0.00798400026,3.96000,0.05200
,,,-0.00798199978,3.94000,0.05400
,,,-0.00798000023,3.96000,0.05200
,,,-0.00797799975,3.96000,0.05200
,,,-0.00797600020,3.96000,0.05400
,,,-0.00797399972,3.96000,0.05200
,,,-0.00797200017,3.94000,0.05200
,,,-0.00796999969,3.96000,0.05200
,,,-0.00796800014,3.94000,0.05200
,,,-0.00796599966,3.96000,0.05200
,,,-0.00796400011,3.96000,0.05200
,,,-0.00796199962,3.94000,0.05200
,,,-0.00796000008,3.96000,0.05200
,,,-0.00795799959,3.96000,0.05200
,,,-0.00795600004,3.96000,0.05200
,,,-0.00795399956,3.96000,0.05200
,,,-0.00795200001,3.96000,0.05200
,,,-0.00794999953,3.96000,0.05200
,,,-0.00794799998,3.96000,0.05200
,,,-0.00794600043,3.96000,0.05200
,,,-0.00794399995,3.94000,0.05200
,,,-0.00794200040,3.96000,0.05200
,,,-0.00793999992,3.94000,0.05200
,,,-0.00793800037,3.96000,0.05200
,,,-0.00793599989,3.94000,0.03800
,,,-0.00793400034,4.04000,0.04000
,,,-0.00793199986,4.10000,0.04000
,,,-0.00793000031,4.12000,0.03800
,,,-0.00792799983,4.12000,0.03800
,,,-0.00792600028,4.12000,0.03800
,,,-0.00792399980,4.12000,0.03800
,,,-0.00792200025,4.12000,0.03800
,,,-0.00791999977,4.12000,0.03800
,,,-0.00791800022,4.12000,0.03800
,,,-0.00791599974,4.12000,0.03800
,,,-0.00791400019,4.12000,0.04000
,,,-0.00791199971,4.12000,0.03800
,,,-0.00791000016,4.12000,0.03800
,,,-0.00790799968,4.12000,0.03800
,,,-0.00790600013,4.12000,0.03800
,,,-0.00790399965,4.12000,0.03800
,,,-0.00790200010,4.12000,0.03800
,,,-0.00789999962,4.12000,0.03800
,,,-0.00789800007,4.12000,0.03800
,,,-0.00789599959,4.12000,0.03800
,,,-0.00789400004,4.12000,0.03800
,,,-0.00789199956,4.12000,0.03800
,,,-0.00789000001,4.12000,0.03800
,,,-0.00788799953,4.12000,0.03800
,,,-0.00788599998,4.12000,0.03800
,,,-0.00788400043,4.12000,0.03800
,,,-0.00788199995,4.12000,0.03800
,,,-0.00788000040,4.12000,0.03800
,,,-0.00787799992,4.12000,0.03800
,,,-0.00787600037,4.12000,0.03800
,,,-0.00787399989,4.12000,0.03800
,,,-0.00787200034,4.12000,0.03800
,,,-0.00786999986,4.12000,0.04000
,,,-0.00786800031,4.10000,0.03800
,,,-0.00786599983,4.12000,0.03600
,,,-0.00786400028,4.12000,0.03800
,,,-0.00786199979,4.12000,0.03800
,,,-0.00786000025,4.12000,0.03800
,,,-0.00785799976,4.12000,0.03800
,,,-0.00785600021,4.12000,0.03800
,,,-0.00785399973,4.12000,0.03800
,,,-0.00785200018,4.12000,0.03800
,,,-0.00784999970,4.12000,0.04000
,,,-0.00784800015,4.12000,0.03800
,,,-0.00784599967,4.12000,0.03800
,,,-0.00784400012,4.12000,0.03800
,,,-0.00784199964,4.12000,0.03600
,,,-0.00784000009,4.12000,0.03800
,,,-0.00783799961,4.12000,0.03800
,,,-0.00783600006,4.12000,0.03800
,,,-0.00783399958,4.12000,0.03800
,,,-0.00783200003,4.12000,0.03800
,,,-0.00782999955,4.12000,0.03800
,,,-0.00782800000,4.12000,0.03800
,,,-0.00782599952,4.12000,0.03800
,,,-0.00782399997,4.12000,0.03800
,,,-0.00782200042,4.12000,0.03800
,,,-0.00781999994,4.12000,0.03800
,,,-0.00781800039,4.12000,0.03800
,,,-0.00781599991,4.12000,0.03800
,,,-0.00781400036,4.12000,0.03800
,,,-0.00781199988,4.12000,0.03800
,,,-0.00780999986,4.12000,0.03800
,,,-0.00780799985,4.12000,0.03800
,,,-0.00780599983,4.12000,0.03800
,,,-0.00780399982,4.12000,0.03800
,,,-0.00780199980,4.12000,0.03600
,,,-0.00779999979,4.12000,0.03800
,,,-0.00779799977,4.12000,0.03800
,,,-0.00779599976,4.12000,0.03800
,,,-0.00779400021,4.12000,0.03800
,,,-0.00779200019,4.12000,0.03800
,,,-0.00779000018,4.12000,0.03800
,,,-0.00778800016,4.12000,0.03800
,,,-0.00778600015,4.12000,0.03800
,,,-0.00778400013,4.12000,0.03800
,,,-0.00778200012,4.12000,0.03800
,,,-0.00778000010,4.12000,0.03800
,,,-0.00777800009,4.12000,0.03600
,,,-0.00777600007,4.12000,0.03800
,,,-0.00777400006,4.12000,0.03800
,,,-0.00777200004,4.12000,0.03800
,,,-0.00777000003,4.12000,0.03800
,,,-0.00776800001,4.12000,0.03600
,,,-0.00776600000,4.12000,0.03800
,,,-0.00776399998,4.12000,0.03800
,,,-0.00776199996,4.12000,0.03800
,,,-0.00775999995,4.12000,0.03800
,,,-0.00775799993,4.12000,0.03800
,,,-0.00775599992,4.12000,0.03800
,,,-0.00775399990,4.12000,0.03800
,,,-0.00775199989,4.12000,0.03800
,,,-0.00774999987,4.12000,0.03800
,,,-0.00774799986,4.12000,0.03800
,,,-0.00774599984,4.12000,0.03800
,,,-0.00774399983,4.12000,0.03800
,,,-0.00774199981,4.12000,0.03800
,,,-0.00773999980,4.12000,0.03800
,,,-0.00773799978,4.12000,0.03800
,,,-0.00773599977,4.12000,0.03800
,,,-0.00773399975,4.12000,0.03800
,,,-0.00773200020,4.12000,0.03800
,,,-0.00773000019,4.12000,0.03800
,,,-0.00772800017,4.12000,0.03800
,,,-0.00772600016,4.12000,0.03800
,,,-0.00772400014,4.12000,0.03800
,,,-0.00772200013,4.12000,0.03800
,,,-0.00772000011,4.12000,0.03800
,,,-0.00771800010,4.12000,0.03800
,,,-0.00771600008,4.12000,0.03800
,,,-0.00771400006,4.12000,0.03800
,,,-0.00771200005,4.12000,0.04000
,,,-0.00771000003,4.12000,0.03800
,,,-0.00770800002,4.12000,0.03800
,,,-0.00770600000,4.12000,0.03800
,,,-0.00770399999,4.12000,0.03600
,,,-0.00770199997,4.12000,0.03800
,,,-0.00769999996,4.12000,0.03800
,,,-0.00769799994,4.12000,0.03800
,,,-0.00769599993,4.12000,0.03800
,,,-0.00769399991,4.12000,0.04000
,,,-0.00769199990,4.12000,0.03600
,,,-0.00768999988,4.12000,0.03800
,,,-0.00768799987,4.12000,0.03800
,,,-0.00768599985,4.12000,0.03600
,,,-0.00768399984,4.12000,0.03800
,,,-0.00768199982,4.10000,0.03800
,,,-0.00767999981,4.12000,0.03600
,,,-0.00767799979,4.12000,0.03800
,,,-0.00767599978,4.12000,0.03800
,,,-0.00767399976,4.12000,0.03800
,,,-0.00767200021,4.12000,0.03800
,,,-0.00767000020,4.12000,0.03800
,,,-0.00766800018,4.12000,0.03800
,,,-0.00766600017,4.12000,0.03800
,,,-0.00766400015,4.12000,0.03800
,,,-0.00766200013,4.12000,0.03800
,,,-0.00766000012,4.12000,0.03800
,,,-0.00765800010,4.12000,0.03800
,,,-0.00765600009,4.12000,0.03800
,,,-0.00765400007,4.12000,0.03800
,,,-0.00765200006,4.12000,0.03800
,,,-0.00765000004,4.12000,0.03800
,,,-0.00764800003,4.12000,0.03800
,,,-0.00764600001,4.12000,0.03800
,,,-0.00764400000,4.12000,0.03800
,,,-0.00764199998,4.12000,0.03800
,,,-0.00763999997,4.12000,0.03800
,,,-0.00763799995,4.12000,0.03600
,,,-0.00763599994,4.12000,0.03800
,,,-0.00763399992,4.12000,0.03800
,,,-0.00763199991,4.12000,0.03800
,,,-0.00762999989,4.12000,0.03800
,,,-0.00762799988,4.12000,0.03600
,,,-0.00762599986,4.12000,0.03600
,,,-0.00762399985,4.12000,0.03800
,,,-0.00762199983,4.12000,0.03800
,,,-0.00761999981,4.12000,0.03800
,,,-0.00761799980,4.12000,0.03800
,,,-0.00761599978,4.12000,0.03600
,,,-0.00761399977,4.12000,0.03800
,,,-0.00761199975,4.12000,0.04000
,,,-0.00761000020,4.12000,0.03800
,,,-0.00760800019,4.12000,0.03800
,,,-0.00760600017,4.12000,0.03800
,,,-0.00760400016,4.12000,0.03800
,,,-0.00760200014,4.12000,0.03800
,,,-0.00760000013,4.12000,0.03800
,,,-0.00759800011,4.12000,0.03800
,,,-0.00759600010,4.12000,0.03800
,,,-0.00759400008,4.12000,0.03800
,,,-0.00759200007,4.12000,0.03800
,,,-0.00759000005,4.12000,0.03800
,,,-0.00758800004,4.12000,0.03800
,,,-0.00758600002,4.12000,0.03800
,,,-0.00758400001,4.12000,0.03800
,,,-0.00758199999,4.12000,0.03800
,,,-0.00757999998,4.12000,0.03800
,,,-0.00757799996,4.12000,0.03800
,,,-0.00757599995,4.12000,0.03800
,,,-0.00757399993,4.12000,0.03800
,,,-0.00757199991,4.12000,0.03800
,,,-0.00756999990,4.12000,0.03800
,,,-0.00756799988,4.12000,0.03800
,,,-0.00756599987,4.12000,0.03800
,,,-0.00756399985,4.12000,0.03800
,,,-0.00756199984,4.12000,0.03800
,,,-0.00755999982,4.12000,0.03800
,,,-0.00755799981,4.12000,0.03800
,,,-0.00755599979,4.12000,0.03800
,,,-0.00755399978,4.12000,0.03800
,,,-0.00755199976,4.12000,0.03800
,,,-0.00755000021,4.12000,0.03800
,,,-0.00754800020,4.12000,0.03600
,,,-0.00754600018,4.12000,0.03800
,,,-0.00754400017,4.12000,0.03800
,,,-0.00754200015,4.12000,0.03800
,,,-0.00754000014,4.12000,0.03800
,,,-0.00753800012,4.12000,0.03800
,,,-0.00753600011,4.12000,0.03800
,,,-0.00753400009,4.12000,0.03800
,,,-0.00753200008,4.12000,0.03800
,,,-0.00753000006,4.12000,0.03800
,,,-0.00752800005,4.12000,0.03800
,,,-0.00752600003,4.12000,0.03800
,,,-0.00752400002,4.12000,0.03600
,,,-0.00752200000,4.12000,0.03800
,,,-0.00751999998,4.12000,0.03800
,,,-0.00751799997,4.12000,0.03800
,,,-0.00751599995,4.12000,0.04000
,,,-0.00751399994,4.12000,0.03600
,,,-0.00751199992,4.12000,0.03800
,,,-0.00750999991,4.12000,0.04000
,,,-0.00750799989,4.12000,0.03800
,,,-0.00750599988,4.12000,0.03800
,,,-0.00750399986,4.12000,0.03800
,,,-0.00750199985,4.12000,0.03800
,,,-0.00749999983,4.12000,0.03600
,,,-0.00749799982,4.12000,0.03800
,,,-0.00749599980,4.12000,0.03800
,,,-0.00749399979,4.12000,0.03800
,,,-0.00749199977,4.12000,0.03800
,,,-0.00748999976,4.12000,0.03800
,,,-0.00748800021,4.12000,0.03600
,,,-0.00748600019,4.12000,0.03800
,,,-0.00748400018,4.12000,0.03800
,,,-0.00748200016,4.12000,0.03800
,,,-0.00748000015,4.12000,0.03800
,,,-0.00747800013,4.12000,0.03800
,,,-0.00747600012,4.10000,0.03800
,,,-0.00747400010,4.12000,0.03800
,,,-0.00747200008,4.12000,0.03800
,,,-0.00747000007,4.12000,0.03800
,,,-0.00746800005,4.12000,0.03800
,,,-0.00746600004,4.12000,0.03800
,,,-0.00746400002,4.12000,0.03800
,,,-0.00746200001,4.12000,0.03800
,,,-0.00745999999,4.12000,0.03800
,,,-0.00745799998,4.12000,0.03800
,,,-0.00745599996,4.12000,0.03800
,,,-0.00745399995,4.12000,0.03800
,,,-0.00745199993,4.12000,0.03800
,,,-0.00744999992,4.12000,0.03800
,,,-0.00744799990,4.12000,0.03600
,,,-0.00744599989,4.12000,0.03800
,,,-0.00744399987,4.12000,0.03800
,,,-0.00744199986,4.12000,0.03600
,,,-0.00743999984,4.10000,0.03800
,,,-0.00743799983,4.12000,0.03800
,,,-0.00743599981,4.12000,0.03600
,,,-0.00743399980,4.12000,0.03800
,,,-0.00743199978,4.12000,0.03800
,,,-0.00742999977,4.12000,0.03800
,,,-0.00742799975,4.10000,0.03800
,,,-0.00742600020,4.12000,0.03800
,,,-0.00742400018,4.12000,0.03600
,,,-0.00742200017,4.12000,0.03800
,,,-0.00742000015,4.12000,0.03800
,,,-0.00741800014,4.12000,0.03800
,,,-0.00741600012,4.12000,0.03800
,,,-0.00741400011,4.12000,0.03800
,,,-0.00741200009,4.12000,0.03800
,,,-0.00741000008,4.12000,0.03800
,,,-0.00740800006,4.12000,0.03800
,,,-0.00740600005,4.12000,0.03800
,,,-0.00740400003,4.12000,0.03600
,,,-0.00740200002,4.12000,0.03600
,,,-0.00740000000,4.12000,0.03800
,,,-0.00739799999,4.12000,0.03600
,,,-0.00739599997,4.12000,0.03800
,,,-0.00739399996,4.12000,0.03800
,,,-0.00739199994,4.12000,0.04000
,,,-0.00738999993,4.12000,0.03800
,,,-0.00738799991,4.12000,0.03800
,,,-0.00738599990,4.12000,0.03800
,,,-0.00738399988,4.12000,0.03800
,,,-0.00738199987,4.12000,0.03800
,,,-0.00737999985,4.12000,0.03800
,,,-0.00737799983,4.12000,0.03800
,,,-0.00737599982,4.12000,0.03600
,,,-0.00737399980,4.10000,0.03800
,,,-0.00737199979,4.12000,0.03800
,,,-0.00736999977,4.12000,0.03600
,,,-0.00736799976,4.12000,0.03800
,,,-0.00736600021,4.12000,0.03800
,,,-0.00736400019,4.18000,0.02400
,,,-0.00736200018,4.24000,0.02400
,,,-0.00736000016,4.26000,0.02400
,,,-0.00735800015,4.28000,0.02400
,,,-0.00735600013,4.28000,0.02600
,,,-0.00735400012,4.28000,0.02600
,,,-0.00735200010,4.30000,0.02400
,,,-0.00735000009,4.28000,0.02400
,,,-0.00734800007,4.28000,0.02400
,,,-0.00734600006,4.28000,0.02600
,,,-0.00734400004,4.28000,0.02600
,,,-0.00734200003,4.28000,0.02400
,,,-0.00734000001,4.28000,0.02400
,,,-0.00733800000,4.28000,0.02400
,,,-0.00733599998,4.28000,0.02400
,,,-0.00733399997,4.28000,0.02600
,,,-0.00733199995,4.26000,0.02600
,,,-0.00732999993,4.28000,0.02400
,,,-0.00732799992,4.28000,0.02400
,,,-0.00732599990,4.28000,0.02600
,,,-0.00732399989,4.28000,0.02600
,,,-0.00732199987,4.28000,0.02600
,,,-0.00731999986,4.28000,0.02600
,,,-0.00731799984,4.28000,0.02400
,,,-0.00731599983,4.28000,0.02600
,,,-0.00731399981,4.28000,0.02600
,,,-0.00731199980,4.30000,0.02600
,,,-0.00730999978,4.28000,0.02400
,,,-0.00730799977,4.28000,0.02600
,,,-0.00730599975,4.28000,0.02400
,,,-0.00730400020,4.26000,0.02400
,,,-0.00730200019,4.28000,0.02600
,,,-0.00730000017,4.28000,0.02400
,,,-0.00729800016,4.28000,0.02400
,,,-0.00729600014,4.28000,0.02600
,,,-0.00729400013,4.28000,0.02400
,,,-0.00729200011,4.28000,0.02600
,,,-0.00729000010,4.28000,0.02600
,,,-0.00728800008,4.28000,0.02400
,,,-0.00728600007,4.28000,0.02400
,,,-0.00728400005,4.28000,0.02600
,,,-0.00728200004,4.30000,0.02400
,,,-0.00728000002,4.28000,0.02600
,,,-0.00727800000,4.28000,0.02400
,,,-0.00727599999,4.28000,0.02400
,,,-0.00727399997,4.28000,0.02400
,,,-0.00727199996,4.28000,0.02600
,,,-0.00726999994,4.28000,0.02400
,,,-0.00726799993,4.28000,0.02400
,,,-0.00726599991,4.28000,0.02600
,,,-0.00726399990,4.28000,0.02400
,,,-0.00726199988,4.28000,0.02400
,,,-0.00725999987,4.28000,0.02600
,,,-0.00725799985,4.28000,0.02400
,,,-0.00725599984,4.28000,0.02400
,,,-0.00725399982,4.28000,0.02600
,,,-0.00725199981,4.28000,0.02600
,,,-0.00724999979,4.28000,0.02400
,,,-0.00724799978,4.28000,0.02400
,,,-0.00724599976,4.28000,0.02600
,,,-0.00724400021,4.28000,0.02400
,,,-0.00724200020,4.28000,0.02400
,,,-0.00724000018,4.28000,0.02600
,,,-0.00723800017,4.28000,0.02600
,,,-0.00723600015,4.28000,0.02400
,,,-0.00723400014,4.28000,0.02600
,,,-0.00723200012,4.28000,0.02600
,,,-0.00723000010,4.28000,0.02400
,,,-0.00722800009,4.28000,0.02400
,,,-0.00722600007,4.28000,0.02600
,,,-0.00722400006,4.28000,0.02600
,,,-0.00722200004,4.28000,0.02400
,,,-0.00722000003,4.28000,0.02600
,,,-0.00721800001,4.28000,0.02400
,,,-0.00721600000,4.28000,0.02400
,,,-0.00721399998,4.28000,0.02600
,,,-0.00721199997,4.28000,0.02400
,,,-0.00720999995,4.28000,0.02400
,,,-0.00720799994,4.28000,0.02400
,,,-0.00720599992,4.28000,0.02400
,,,-0.00720399991,4.28000,0.02600
,,,-0.00720199989,4.28000,0.02400
,,,-0.00719999988,4.28000,0.02400
,,,-0.00719799986,4.28000,0.02400
,,,-0.00719599985,4.28000,0.02400
,,,-0.00719399983,4.28000,0.02600
,,,-0.00719199982,4.28000,0.02400
,,,-0.00718999980,4.28000,0.02400
,,,-0.00718799978,4.28000,0.02400
,,,-0.00718599977,4.28000,0.02400
,,,-0.00718399975,4.28000,0.02400
,,,-0.00718200020,4.26000,0.02400
,,,-0.00718000019,4.28000,0.02600
,,,-0.00717800017,4.28000,0.02400
,,,-0.00717600016,4.28000,0.02400
,,,-0.00717400014,4.28000,0.02600
,,,-0.00717200013,4.28000,0.02400
,,,-0.00717000011,4.28000,0.02400
,,,-0.00716800010,4.28000,0.02600
,,,-0.00716600008,4.28000,0.02600
,,,-0.00716400007,4.28000,0.02400
,,,-0.00716200005,4.28000,0.02600
,,,-0.00716000004,4.28000,0.02400
,,,-0.00715800002,4.28000,0.02400
,,,-0.00715600001,4.28000,0.02600
,,,-0.00715399999,4.28000,0.02600
,,,-0.00715199998,4.28000,0.02400
,,,-0.00714999996,4.28000,0.02400
,,,-0.00714799995,4.28000,0.02400
,,,-0.00714599993,4.28000,0.02400
,,,-0.00714399992,4.28000,0.02600
,,,-0.00714199990,4.28000,0.02400
,,,-0.00713999989,4.26000,0.02400
,,,-0.00713799987,4.28000,0.02400
,,,-0.00713599985,4.28000,0.02400
,,,-0.00713399984,4.28000,0.02600
,,,-0.00713199982,4.28000,0.02400
,,,-0.00712999981,4.28000,0.02400
,,,-0.00712799979,4.28000,0.02400
,,,-0.00712599978,4.28000,0.02400
,,,-0.00712399976,4.28000,0.02400
,,,-0.00712200021,4.28000,0.02400
,,,-0.00712000020,4.28000,0.02400
,,,-0.00711800018,4.28000,0.02400
,,,-0.00711600017,4.28000,0.02400
,,,-0.00711400015,4.28000,0.02400
,,,-0.00711200014,4.28000,0.02400
,,,-0.00711000012,4.28000,0.02400
,,,-0.00710800011,4.26000,0.02400
,,,-0.00710600009,4.28000,0.02400
,,,-0.00710400008,4.28000,0.02400
,,,-0.00710200006,4.28000,0.02600
,,,-0.00710000005,4.28000,0.02400
,,,-0.00709800003,4.28000,0.02400
,,,-0.00709600002,4.28000,0.02400
,,,-0.00709400000,4.26000,0.02400
,,,-0.00709199999,4.28000,0.02400
,,,-0.00708999997,4.26000,0.02400
,,,-0.00708799995,4.26000,0.02600
,,,-0.00708599994,4.28000,0.02400
,,,-0.00708399992,4.28000,0.02600
,,,-0.00708199991,4.30000,0.02400
,,,-0.00707999989,4.28000,0.02600
,,,-0.00707799988,4.28000,0.02400
,,,-0.00707599986,4.28000,0.02400
,,,-0.00707399985,4.26000,0.02600
,,,-0.00707199983,4.28000,0.02400
,,,-0.00706999982,4.26000,0.02400
,,,-0.00706799980,4.28000,0.02600
,,,-0.00706599979,4.28000,0.02400
,,,-0.00706399977,4.28000,0.02400
,,,-0.00706199976,4.28000,0.02400
,,,-0.00706000021,4.28000,0.02400
,,,-0.00705800019,4.28000,0.02600
,,,-0.00705600018,4.26000,0.02400
,,,-0.00705400016,4.28000,0.02400
,,,-0.00705200015,4.28000,0.02600
,,,-0.00705000013,4.28000,0.02400
,,,-0.00704800012,4.28000,0.02600
,,,-0.00704600010,4.28000,0.02400
,,,-0.00704400009,4.28000,0.02400
,,,-0.00704200007,4.28000,0.02600
,,,-0.00704000005,4.28000,0.02400
,,,-0.00703800004,4.28000,0.02400
,,,-0.00703600002,4.28000,0.02400
,,,-0.00703400001,4.28000,0.02400
,,,-0.00703199999,4.28000,0.02600
,,,-0.00702999998,4.28000,0.02400
,,,-0.00702799996,4.26000,0.02400
,,,-0.00702599995,4.26000,0.02600
,,,-0.00702399993,4.28000,0.02400
,,,-0.00702199992,4.28000,0.02400
,,,-0.00701999990,4.28000,0.02400
,,,-0.00701799989,4.28000,0.02400
,,,-0.00701599987,4.28000,0.02400
,,,-0.00701399986,4.28000,0.02400
,,,-0.00701199984,4.28000,0.02400
,,,-0.00700999983,4.28000,0.02600
,,,-0.00700799981,4.26000,0.02400
,,,-0.00700599980,4.28000,0.02600
,,,-0.00700399978,4.28000,0.02400
,,,-0.00700199977,4.28000,0.02600
,,,-0.00699999975,4.28000,0.02400
,,,-0.00699800020,4.28000,0.02600
,,,-0.00699600019,4.28000,0.02400
,,,-0.00699400017,4.28000,0.02600
,,,-0.00699200016,4.28000,0.02600
,,,-0.00699000014,4.28000,0.02400
,,,-0.00698800012,4.28000,0.02400
,,,-0.00698600011,4.28000,0.02400
,,,-0.00698400009,4.28000,0.02400
,,,-0.00698200008,4.28000,0.02600
,,,-0.00698000006,4.28000,0.02400
,,,-0.00697800005,4.28000,0.02600
,,,-0.00697600003,4.28000,0.02600
,,,-0.00697400002,4.28000,0.02400
,,,-0.00697200000,4.28000,0.02400
,,,-0.00696999999,4.28000,0.02400
,,,-0.00696799997,4.28000,0.02400
,,,-0.00696599996,4.28000,0.02400
,,,-0.00696399994,4.28000,0.02400
,,,-0.00696199993,4.28000,0.02400
,,,-0.00695999991,4.28000,0.02600
,,,-0.00695799990,4.28000,0.02400
,,,-0.00695599988,4.28000,0.02400
,,,-0.00695399987,4.28000,0.02600
,,,-0.00695199985,4.28000,0.02400
,,,-0.00694999984,4.28000,0.02600
,,,-0.00694799982,4.28000,0.02400
,,,-0.00694599980,4.28000,0.02400
,,,-0.00694399979,4.26000,0.02400
,,,-0.00694199977,4.28000,0.02400
,,,-0.00693999976,4.28000,0.02600
,,,-0.00693800021,4.28000,0.02400
,,,-0.00693600019,4.28000,0.02400
,,,-0.00693400018,4.28000,0.02200
,,,-0.00693200016,4.28000,0.02400
,,,-0.00693000015,4.30000,0.02400
,,,-0.00692800013,4.28000,0.02600
,,,-0.00692600012,4.28000,0.02600
,,,-0.00692400010,4.28000,0.02400
,,,-0.00692200009,4.28000,0.02400
,,,-0.00692000007,4.26000,0.02400
,,,-0.00691800006,4.28000,0.02400
,,,-0.00691600004,4.28000,0.02000
,,,-0.00691400003,4.36000,0.01000
,,,-0.00691200001,4.42000,0.01200
,,,-0.00691000000,4.44000,0.01000
,,,-0.00690799998,4.44000,0.01200
,,,-0.00690599997,4.44000,0.01200
,,,-0.00690399995,4.44000,0.01000
,,,-0.00690199994,4.44000,0.01200
,,,-0.00689999992,4.44000,0.01200
,,,-0.00689799991,4.44000,0.01200
,,,-0.00689599989,4.44000,0.01200
,,,-0.00689399987,4.44000,0.01000
,,,-0.00689199986,4.44000,0.01200
,,,-0.00688999984,4.44000,0.01200
,,,-0.00688799983,4.44000,0.01200
,,,-0.00688599981,4.44000,0.01000
,,,-0.00688399980,4.44000,0.01200
,,,-0.00688199978,4.46000,0.01200
,,,-0.00687999977,4.44000,0.01200
,,,-0.00687799975,4.44000,0.01200
,,,-0.00687600020,4.44000,0.01200
,,,-0.00687400019,4.44000,0.01200
,,,-0.00687200017,4.44000,0.01200
,,,-0.00687000016,4.44000,0.01400
,,,-0.00686800014,4.44000,0.01000
,,,-0.00686600013,4.44000,0.01200
,,,-0.00686400011,4.46000,0.01200
,,,-0.00686200010,4.44000,0.01200
,,,-0.00686000008,4.44000,0.01000
,,,-0.00685800007,4.46000,0.01200
,,,-0.00685600005,4.44000,0.01200
,,,-0.00685400004,4.44000,0.01200
,,,-0.00685200002,4.44000,0.01200
,,,-0.00685000001,4.44000,0.01200
,,,-0.00684799999,4.44000,0.01200
,,,-0.00684599997,4.44000,0.01200
,,,-0.00684399996,4.44000,0.01200
,,,-0.00684199994,4.44000,0.01200
,,,-0.00683999993,4.44000,0.01200
,,,-0.00683799991,4.44000,0.01000
,,,-0.00683599990,4.44000,0.01200
,,,-0.00683399988,4.46000,0.01200
,,,-0.00683199987,4.44000,0.01200
,,,-0.00682999985,4.46000,0.01000
,,,-0.00682799984,4.44000,0.01000
,,,-0.00682599982,4.44000,0.01200
,,,-0.00682399981,4.44000,0.01200
,,,-0.00682199979,4.44000,0.01200
,,,-0.00681999978,4.44000,0.01200
,,,-0.00681799976,4.44000,0.01000
,,,-0.00681600021,4.46000,0.01200
,,,-0.00681400020,4.44000,0.01200
,,,-0.00681200018,4.44000,0.01200
,,,-0.00681000017,4.44000,0.01200
,,,-0.00680800015,4.44000,0.01200
,,,-0.00680600014,4.46000,0.01200
,,,-0.00680400012,4.44000,0.01200
,,,-0.00680200011,4.44000,0.01000
,,,-0.00680000009,4.46000,0.01200
,,,-0.00679800007,4.44000,0.01000
,,,-0.00679600006,4.44000,0.01000
,,,-0.00679400004,4.44000,0.01000
,,,-0.00679200003,4.46000,0.01200
,,,-0.00679000001,4.44000,0.01200
,,,-0.00678800000,4.44000,0.01200
,,,-0.00678599998,4.44000,0.01200
,,,-0.00678399997,4.44000,0.01000
,,,-0.00678199995,4.44000,0.01200
,,,-0.00677999994,4.44000,0.01000
,,,-0.00677799992,4.44000,0.01200
,,,-0.00677599991,4.44000,0.01000
,,,-0.00677399989,4.44000,0.01200
,,,-0.00677199988,4.44000,0.01200
,,,-0.00676999986,4.44000,0.01000
,,,-0.00676799985,4.44000,0.01200
,,,-0.00676599983,4.46000,0.01200
,,,-0.00676399982,4.44000,0.01000
,,,-0.00676199980,4.44000,0.01200
,,,-0.00675999979,4.44000,0.01200
,,,-0.00675799977,4.44000,0.01200
,,,-0.00675599976,4.46000,0.01200
,,,-0.00675400021,4.46000,0.01200
,,,-0.00675200019,4.44000,0.01200
,,,-0.00675000018,4.44000,0.01000
,,,-0.00674800016,4.46000,0.01000
,,,-0.00674600014,4.44000,0.01200
,,,-0.00674400013,4.44000,0.01200
,,,-0.00674200011,4.46000,0.01200
,,,-0.00674000010,4.44000,0.01000
,,,-0.00673800008,4.44000,0.01000
,,,-0.00673600007,4.44000,0.01000
,,,-0.00673400005,4.44000,0.01200
,,,-0.00673200004,4.44000,0.01200
,,,-0.00673000002,4.44000,0.01000
,,,-0.00672800001,4.44000,0.01200
,,,-0.00672599999,4.44000,0.01000
,,,-0.00672399998,4.44000,0.01400
,,,-0.00672199996,4.44000,0.01000
,,,-0.00671999995,4.44000,0.01200
,,,-0.00671799993,4.44000,0.01200
,,,-0.00671599992,4.44000,0.01200
,,,-0.00671399990,4.46000,0.01200
,,,-0.00671199989,4.44000,0.01200
,,,-0.00670999987,4.44000,0.01200
,,,-0.00670799986,4.44000,0.01200
,,,-0.00670599984,4.44000,0.01200
,,,-0.00670399982,4.44000,0.01200
,,,-0.00670199981,4.44000,0.01200
,,,-0.00669999979,4.44000,0.01000
,,,-0.00669799978,4.44000,0.01200
,,,-0.00669599976,4.44000,0.01200
,,,-0.00669400021,4.44000,0.01200
,,,-0.00669200020,4.44000,0.01200
,,,-0.00669000018,4.44000,0.01000
,,,-0.00668800017,4.44000,0.01200
,,,-0.00668600015,4.44000,0.01000
,,,-0.00668400014,4.44000,0.01200
,,,-0.00668200012,4.44000,0.01000
,,,-0.00668000011,4.44000,0.01200
,,,-0.00667800009,4.44000,0.01000
,,,-0.00667600008,4.44000,0.01200
,,,-0.00667400006,4.44000,0.01200
,,,-0.00667200005,4.44000,0.01000
,,,-0.00667000003,4.44000,0.01200
,,,-0.00666800002,4.46000,0.01000
,,,-0.00666600000,4.44000,0.01000
,,,-0.00666399999,4.44000,0.01000
,,,-0.00666199997,4.44000,0.01200
,,,-0.00665999996,4.44000,0.01200
,,,-0.00665799994,4.44000,0.01000
,,,-0.00665599992,4.44000,0.01000
,,,-0.00665399991,4.44000,0.01000
,,,-0.00665199989,4.44000,0.01200
,,,-0.00664999988,4.44000,0.01000
,,,-0.00664799986,4.44000,0.01200
,,,-0.00664599985,4.44000,0.01000
,,,-0.00664399983,4.44000,0.01200
,,,-0.00664199982,4.46000,0.01000
,,,-0.00663999980,4.44000,0.01200
,,,-0.00663799979,4.44000,0.01000
,,,-0.00663599977,4.44000,0.01200
,,,-0.00663399976,4.44000,0.01200
,,,-0.00663200021,4.44000,0.01200
,,,-0.00663000019,4.44000,0.01200
,,,-0.00662800018,4.44000,0.01000
,,,-0.00662600016,4.44000,0.01200
,,,-0.00662400015,4.46000,0.01200
,,,-0.00662200013,4.44000,0.01000
,,,-0.00662000012,4.44000,0.01000
,,,-0.00661800010,4.44000,0.01200
,,,-0.00661600009,4.46000,0.01200
,,,-0.00661400007,4.44000,0.01200
,,,-0.00661200006,4.44000,0.01200
,,,-0.00661000004,4.44000,0.01000
,,,-0.00660800003,4.44000,0.01200
,,,-0.00660600001,4.46000,0.01000
,,,-0.00660399999,4.46000,0.01200
,,,-0.00660199998,4.44000,0.01000
,,,-0.00659999996,4.44000,0.01200
,,,-0.00659799995,4.44000,0.01200
,,,-0.00659599993,4.44000,0.01200
,,,-0.00659399992,4.44000,0.01200
,,,-0.00659199990,4.44000,0.01000
,,,-0.00658999989,4.44000,0.01200
,,,-0.00658799987,4.46000,0.01200
,,,-0.00658599986,4.44000,0.01200
,,,-0.00658399984,4.44000,0.01200
,,,-0.00658199983,4.44000,0.01000
,,,-0.00657999981,4.46000,0.01200
,,,-0.00657799980,4.44000,0.01000
,,,-0.00657599978,4.44000,0.01000
,,,-0.00657399977,4.44000,0.01000
,,,-0.00657199975,4.44000,0.01000
,,,-0.00657000020,4.44000,0.01200
,,,-0.00656800019,4.44000,0.01000
,,,-0.00656600017,4.44000,0.01200
,,,-0.00656400016,4.44000,0.01200
,,,-0.00656200014,4.44000,0.01000
,,,-0.00656000013,4.44000,0.01200
,,,-0.00655800011,4.44000,0.00800
,,,-0.00655600009,4.44000,0.01200
,,,-0.00655400008,4.44000,0.01200
,,,-0.00655200006,4.44000,0.01000
,,,-0.00655000005,4.44000,0.01200
,,,-0.00654800003,4.44000,0.00800
,,,-0.00654600002,4.44000,0.01200
,,,-0.00654400000,4.44000,0.01000
,,,-0.00654199999,4.44000,0.01000
,,,-0.00653999997,4.44000,0.01000
,,,-0.00653799996,4.46000,0.01000
,,,-0.00653599994,4.44000,0.01000
,,,-0.00653399993,4.44000,0.01200
,,,-0.00653199991,4.44000,0.01200
,,,-0.00652999990,4.44000,0.01000
,,,-0.00652799988,4.46000,0.01000
,,,-0.00652599987,4.44000,0.01000
,,,-0.00652399985,4.44000,0.01000
,,,-0.00652199984,4.44000,0.01200
,,,-0.00651999982,4.46000,0.01000
,,,-0.00651799981,4.44000,0.01000
,,,-0.00651599979,4.44000,0.01200
,,,-0.00651399978,4.44000,0.01000
,,,-0.00651199976,4.44000,0.01000
,,,-0.00651000021,4.44000,0.01000
,,,-0.00650800020,4.46000,0.01000
,,,-0.00650600018,4.44000,0.01200
,,,-0.00650400016,4.44000,0.01200
,,,-0.00650200015,4.46000,0.01000
,,,-0.00650000013,4.44000,-0.00200
,,,-0.00649800012,4.52000,-0.00200
,,,-0.00649600010,4.60000,-0.00200
,,,-0.00649400009,4.62000,-0.00200
,,,-0.00649200007,4.62000,-0.00200
,,,-0.00649000006,4.64000,-0.00200
,,,-0.00648800004,4.62000,-0.00200
,,,-0.00648600003,4.64000,-0.00200
,,,-0.00648400001,4.62000,0.00
,,,-0.00648200000,4.62000,-0.00200
,,,-0.00647999998,4.62000,-0.00200
,,,-0.00647799997,4.62000,-0.00200
,,,-0.00647599995,4.62000,-0.00200
,,,-0.00647399994,4.62000,-0.00200
,,,-0.00647199992,4.62000,-0.00200
,,,-0.00646999991,4.62000,-0.00200
,,,-0.00646799989,4.62000,-0.00200
,,,-0.00646599988,4.62000,-0.00200
,,,-0.00646399986,4.62000,-0.00200
,,,-0.00646199984,4.62000,-0.00200
,,,-0.00645999983,4.62000,-0.00200
,,,-0.00645799981,4.64000,-0.00200
,,,-0.00645599980,4.62000,-0.00200
,,,-0.00645399978,4.62000,-0.00200
,,,-0.00645199977,4.64000,-0.00200
,,,-0.00644999975,4.62000,-0.00200
,,,-0.00644800020,4.62000,-0.00200
,,,-0.00644600019,4.62000,-0.00200
,,,-0.00644400017,4.64000,-0.00200
,,,-0.00644200016,4.64000,0.00
,,,-0.00644000014,4.62000,-0.00200
,,,-0.00643800013,4.62000,-0.00200
,,,-0.00643600011,4.62000,0.00
,,,-0.00643400010,4.64000,-0.00200
,,,-0.00643200008,4.62000,-0.00200
,,,-0.00643000007,4.62000,-0.00200
,,,-0.00642800005,4.62000,-0.00200
,,,-0.00642600004,4.62000,-0.00200
,,,-0.00642400002,4.62000,-0.00200
,,,-0.00642200001,4.62000,-0.00200
,,,-0.00641999999,4.62000,-0.00200
,,,-0.00641799998,4.62000,-0.00200
,,,-0.00641599996,4.62000,-0.00200
,,,-0.00641399994,4.62000,-0.00200
,,,-0.00641199993,4.62000,-0.00200
,,,-0.00640999991,4.62000,-0.00200
,,,-0.00640799990,4.62000,-0.00200
,,,-0.00640599988,4.62000,-0.00200
,,,-0.00640399987,4.62000,-0.00400
,,,-0.00640199985,4.62000,-0.00200
,,,-0.00639999984,4.62000,-0.00200
,,,-0.00639799982,4.62000,-0.00200
,,,-0.00639599981,4.62000,-0.00200
,,,-0.00639399979,4.62000,-0.00200
,,,-0.00639199978,4.62000,-0.00200
,,,-0.00638999976,4.62000,-0.00200
,,,-0.00638800021,4.62000,-0.00200
,,,-0.00638600020,4.64000,-0.00200
,,,-0.00638400018,4.62000,-0.00200
,,,-0.00638200017,4.62000,-0.00200
,,,-0.00638000015,4.62000,-0.00200
,,,-0.00637800014,4.62000,0.00
,,,-0.00637600012,4.62000,-0.00200
,,,-0.00637400011,4.62000,-0.00200
,,,-0.00637200009,4.64000,-0.00200
,,,-0.00637000008,4.62000,-0.00200
,,,-0.00636800006,4.62000,-0.00200
,,,-0.00636600005,4.62000,-0.00200
,,,-0.00636400003,4.64000,-0.00200
,,,-0.00636200001,4.62000,-0.00400
,,,-0.00636000000,4.62000,-0.00200
,,,-0.00635799998,4.64000,-0.00400
,,,-0.00635599997,4.62000,-0.00200
,,,-0.00635399995,4.64000,-0.00200
,,,-0.00635199994,4.62000,-0.00200
,,,-0.00634999992,4.62000,-0.00200
,,,-0.00634799991,4.62000,-0.00200
,,,-0.00634599989,4.62000,-0.00200
,,,-0.00634399988,4.64000,-0.00200
,,,-0.00634199986,4.64000,-0.00200
,,,-0.00633999985,4.62000,-0.00200
,,,-0.00633799983,4.62000,-0.00400
,,,-0.00633599982,4.64000,-0.00200
,,,-0.00633399980,4.62000,-0.00200
,,,-0.00633199979,4.62000,-0.00200
,,,-0.00632999977,4.62000,-0.00200
,,,-0.00632799976,4.62000,-0.00400
,,,-0.00632600021,4.62000,-0.00200
,,,-0.00632400019,4.62000,-0.00200
,,,-0.00632200018,4.62000,-0.00200
,,,-0.00632000016,4.64000,-0.00200
,,,-0.00631800015,4.62000,-0.00200
,,,-0.00631600013,4.62000,-0.00400
,,,-0.00631400011,4.64000,-0.00200
,,,-0.00631200010,4.62000,-0.00200
,,,-0.00631000008,4.62000,-0.00200
,,,-0.00630800007,4.62000,-0.00200
,,,-0.00630600005,4.62000,-0.00200
,,,-0.00630400004,4.62000,-0.00200
,,,-0.00630200002,4.62000,-0.00400
,,,-0.00630000001,4.62000,-0.00200
,,,-0.00629799999,4.64000,-0.00200
,,,-0.00629599998,4.62000,-0.00200
,,,-0.00629399996,4.62000,-0.00200
,,,-0.00629199995,4.64000,0.00
,,,-0.00628999993,4.62000,-0.00400
,,,-0.00628799992,4.62000,-0.00200
,,,-0.00628599990,4.62000,-0.00200
,,,-0.00628399989,4.62000,-0.00200
,,,-0.00628199987,4.62000,-0.00200
,,,-0.00627999986,4.62000,-0.00200
,,,-0.00627799984,4.64000,-0.00200
,,,-0.00627599983,4.62000,-0.00200
,,,-0.00627399981,4.62000,-0.00200
,,,-0.00627199979,4.62000,-0.00200
,,,-0.00626999978,4.62000,-0.00200
,,,-0.00626799976,4.64000,-0.00200
,,,-0.00626600021,4.64000,-0.00200
,,,-0.00626400020,4.62000,-0.00200
,,,-0.00626200018,4.62000,-0.00200
,,,-0.00626000017,4.62000,-0.00200
,,,-0.00625800015,4.62000,-0.00200
,,,-0.00625600014,4.62000,-0.00200
,,,-0.00625400012,4.62000,-0.00200
,,,-0.00625200011,4.62000,-0.00200
,,,-0.00625000009,4.62000,-0.00200
,,,-0.00624800008,4.62000,-0.00200
,,,-0.00624600006,4.64000,-0.00200
,,,-0.00624400005,4.62000,-0.00200
,,,-0.00624200003,4.64000,-0.00200
,,,-0.00624000002,4.62000,-0.00200
,,,-0.00623800000,4.64000,-0.00200
,,,-0.00623599999,4.62000,-0.00200
,,,-0.00623399997,4.62000,-0.00200
,,,-0.00623199996,4.62000,-0.00200
,,,-0.00622999994,4.62000,-0.00200
,,,-0.00622799993,4.62000,-0.00200
,,,-0.00622599991,4.64000,0.00
,,,-0.00622399990,4.62000,-0.00200
,,,-0.00622199988,4.62000,-0.00400
,,,-0.00621999986,4.62000,-0.00200
,,,-0.00621799985,4.62000,-0.00200
,,,-0.00621599983,4.62000,-0.00400
,,,-0.00621399982,4.64000,-0.00200
,,,-0.00621199980,4.62000,-0.00200
,,,-0.00620999979,4.64000,-0.00200
,,,-0.00620799977,4.62000,-0.00200
,,,-0.00620599976,4.62000,-0.00200
,,,-0.00620400021,4.62000,-0.00200
,,,-0.00620200019,4.62000,-0.00400
,,,-0.00620000018,4.62000,-0.00200
,,,-0.00619800016,4.62000,-0.00200
,,,-0.00619600015,4.62000,-0.00200
,,,-0.00619400013,4.62000,-0.00200
,,,-0.00619200012,4.62000,-0.00200
,,,-0.00619000010,4.62000,-0.00200
,,,-0.00618800009,4.62000,-0.00200
,,,-0.00618600007,4.62000,-0.00200
,,,-0.00618400006,4.62000,0.00
,,,-0.00618200004,4.62000,-0.00400
,,,-0.00618000003,4.62000,-0.00200
,,,-0.00617800001,4.62000,-0.00200
,,,-0.00617600000,4.62000,-0.00200
,,,-0.00617399998,4.62000,-0.00200
,,,-0.00617199996,4.62000,-0.00200
,,,-0.00616999995,4.64000,-0.00200
,,,-0.00616799993,4.62000,-0.00200
,,,-0.00616599992,4.62000,-0.00200
,,,-0.00616399990,4.62000,-0.00200
,,,-0.00616199989,4.62000,-0.00200
,,,-0.00615999987,4.62000,-0.00400
,,,-0.00615799986,4.62000,-0.00200
,,,-0.00615599984,4.62000,-0.00200
,,,-0.00615399983,4.62000,-0.00400
,,,-0.00615199981,4.62000,-0.00200
,,,-0.00614999980,4.64000,-0.00200
,,,-0.00614799978,4.64000,-0.00200
,,,-0.00614599977,4.64000,-0.00200
,,,-0.00614400022,4.62000,-0.00200
,,,-0.00614200020,4.62000,-0.00400
,,,-0.00614000019,4.62000,-0.00400
,,,-0.00613800017,4.62000,-0.00200
,,,-0.00613600016,4.62000,-0.00200
,,,-0.00613400014,4.64000,-0.00200
,,,-0.00613200013,4.62000,-0.00200
,,,-0.00613000011,4.62000,-0.00200
,,,-0.00612800010,4.62000,-0.00200
,,,-0.00612600008,4.62000,-0.00200
,,,-0.00612400007,4.64000,-0.00200
,,,-0.00612200005,4.62000,-0.00200
,,,-0.00612000003,4.62000,-0.00200
,,,-0.00611800002,4.62000,0.00
,,,-0.00611600000,4.62000,-0.00200
,,,-0.00611399999,4.62000,-0.00200
,,,-0.00611199997,4.62000,-0.00200
,,,-0.00610999996,4.62000,-0.00200
,,,-0.00610799994,4.62000,-0.00200
,,,-0.00610599993,4.62000,-0.00200
,,,-0.00610399991,4.62000,0.00
,,,-0.00610199990,4.62000,-0.00200
,,,-0.00609999988,4.62000,-0.00200
,,,-0.00609799987,4.64000,-0.00200
,,,-0.00609599985,4.62000,-0.00200
,,,-0.00609399984,4.62000,-0.00400
,,,-0.00609199982,4.62000,-0.00200
,,,-0.00608999981,4.64000,-0.00200
,,,-0.00608799979,4.64000,-0.01600
,,,-0.00608599978,4.70000,-0.01600
,,,-0.00608399976,4.78000,-0.01400
,,,-0.00608200021,4.80000,-0.01600
,,,-0.00608000020,4.80000,-0.01600
,,,-0.00607800018,4.80000,-0.01400
,,,-0.00607600017,4.80000,-0.01600
,,,-0.00607400015,4.80000,-0.01600
,,,-0.00607200013,4.80000,-0.01600
,,,-0.00607000012,4.80000,-0.01600
,,,-0.00606800010,4.80000,-0.01600
,,,-0.00606600009,4.80000,-0.01600
,,,-0.00606400007,4.80000,-0.01600
,,,-0.00606200006,4.78000,-0.01600
,,,-0.00606000004,4.80000,-0.01600
,,,-0.00605800003,4.80000,-0.01400
,,,-0.00605600001,4.80000,-0.01600
,,,-0.00605400000,4.80000,-0.01800
,,,-0.00605199998,4.80000,-0.01400
,,,-0.00604999997,4.80000,-0.01600
,,,-0.00604799995,4.80000,-0.01600
,,,-0.00604599994,4.80000,-0.01400
,,,-0.00604399992,4.80000,-0.01600
,,,-0.00604199991,4.78000,-0.01600
,,,-0.00603999989,4.78000,-0.01600
,,,-0.00603799988,4.78000,-0.01400
,,,-0.00603599986,4.80000,-0.01400
,,,-0.00603399985,4.80000,-0.01600
,,,-0.00603199983,4.80000,-0.01600
,,,-0.00602999981,4.78000,-0.01400
,,,-0.00602799980,4.80000,-0.01600
,,,-0.00602599978,4.80000,-0.01600
,,,-0.00602399977,4.80000,-0.01600
,,,-0.00602199975,4.80000,-0.01600
,,,-0.00602000020,4.78000,-0.01600
,,,-0.00601800019,4.80000,-0.01400
,,,-0.00601600017,4.80000,-0.01600
,,,-0.00601400016,4.80000,-0.01600
,,,-0.00601200014,4.80000,-0.01600
,,,-0.00601000013,4.78000,-0.01600
,,,-0.00600800011,4.80000,-0.01600
,,,-0.00600600010,4.78000,-0.01600
,,,-0.00600400008,4.80000,-0.01600
,,,-0.00600200007,4.80000,-0.01600
,,,-0.00600000005,4.80000,-0.01600
,,,-0.00599800004,4.78000,-0.01600
,,,-0.00599600002,4.78000,-0.01600
,,,-0.00599400001,4.78000,-0.01600
,,,-0.00599199999,4.80000,-0.01800
,,,-0.00598999998,4.78000,-0.01400
,,,-0.00598799996,4.80000,-0.01600
,,,-0.00598599995,4.80000,-0.01400
,,,-0.00598399993,4.80000,-0.01600
,,,-0.00598199992,4.78000,-0.01600
,,,-0.00597999990,4.80000,-0.01600
,,,-0.00597799988,4.80000,-0.01600
,,,-0.00597599987,4.78000,-0.01800
,,,-0.00597399985,4.78000,-0.01600
,,,-0.00597199984,4.80000,-0.01600
,,,-0.00596999982,4.80000,-0.01400
,,,-0.00596799981,4.78000,-0.01600
,,,-0.00596599979,4.80000,-0.01600
,,,-0.00596399978,4.78000,-0.01600
,,,-0.00596199976,4.78000,-0.01600
,,,-0.00596000021,4.78000,-0.01600
,,,-0.00595800020,4.80000,-0.01600
,,,-0.00595600018,4.80000,-0.01400
,,,-0.00595400017,4.80000,-0.01800
,,,-0.00595200015,4.78000,-0.01600
,,,-0.00595000014,4.78000,-0.01400
,,,-0.00594800012,4.78000,-0.01600
,,,-0.00594600011,4.80000,-0.01600
,,,-0.00594400009,4.78000,-0.01600
,,,-0.00594200008,4.80000,-0.01400
,,,-0.00594000006,4.80000,-0.01600
,,,-0.00593800005,4.80000,-0.01600
,,,-0.00593600003,4.78000,-0.01600
,,,-0.00593400002,4.80000,-0.01600
,,,-0.00593200000,4.80000,-0.01600
,,,-0.00592999998,4.78000,-0.01600
,,,-0.00592799997,4.80000,-0.01400
,,,-0.00592599995,4.80000,-0.01600
,,,-0.00592399994,4.78000,-0.01400
,,,-0.00592199992,4.78000,-0.01600
,,,-0.00591999991,4.80000,-0.01600
,,,-0.00591799989,4.80000,-0.01400
,,,-0.00591599988,4.80000,-0.01600
,,,-0.00591399986,4.78000,-0.01800
,,,-0.00591199985,4.78000,-0.01600
,,,-0.00590999983,4.78000,-0.01600
,,,-0.00590799982,4.80000,-0.01600
,,,-0.00590599980,4.80000,-0.01600
,,,-0.00590399979,4.80000,-0.01600
,,,-0.00590199977,4.80000,-0.01600
,,,-0.00589999976,4.80000,-0.01600
,,,-0.00589800021,4.78000,-0.01600
,,,-0.00589600019,4.78000,-0.01600
,,,-0.00589400018,4.80000,-0.01600
,,,-0.00589200016,4.80000,-0.01600
,,,-0.00589000015,4.80000,-0.01600
,,,-0.00588800013,4.80000,-0.01400
,,,-0.00588600012,4.78000,-0.01400
,,,-0.00588400010,4.78000,-0.01600
,,,-0.00588200008,4.80000,-0.01600
,,,-0.00588000007,4.80000,-0.01600
,,,-0.00587800005,4.80000,-0.01600
,,,-0.00587600004,4.80000,-0.01600
,,,-0.00587400002,4.78000,-0.01600
,,,-0.00587200001,4.80000,-0.01600
,,,-0.00586999999,4.80000,-0.01600
,,,-0.00586799998,4.80000,-0.01600
,,,-0.00586599996,4.78000,-0.01600
,,,-0.00586399995,4.78000,-0.01600
,,,-0.00586199993,4.80000,-0.01600
,,,-0.00585999992,4.78000,-0.01600
,,,-0.00585799990,4.78000,-0.01800
,,,-0.00585599989,4.78000,-0.01400
,,,-0.00585399987,4.80000,-0.01600
,,,-0.00585199986,4.80000,-0.01600
,,,-0.00584999984,4.80000,-0.01600
,,,-0.00584799983,4.80000,-0.01600
,,,-0.00584599981,4.78000,-0.01600
,,,-0.00584399980,4.80000,-0.01800
,,,-0.00584199978,4.80000,-0.01800
,,,-0.00583999977,4.80000,-0.01800
,,,-0.00583800022,4.80000,-0.01600
,,,-0.00583600020,4.78000,-0.01600
,,,-0.00583400019,4.80000,-0.01600
,,,-0.00583200017,4.78000,-0.01600
,,,-0.00583000015,4.78000,-0.01600
,,,-0.00582800014,4.80000,-0.01600
,,,-0.00582600012,4.80000,-0.01600
,,,-0.00582400011,4.80000,-0.01400
,,,-0.00582200009,4.80000,-0.01600
,,,-0.00582000008,4.80000,-0.01600
,,,-0.00581800006,4.78000,-0.01600
,,,-0.00581600005,4.78000,-0.01600
,,,-0.00581400003,4.78000,-0.01600
,,,-0.00581200002,4.78000,-0.01400
,,,-0.00581000000,4.80000,-0.01600
,,,-0.00580799999,4.78000,-0.01800
,,,-0.00580599997,4.80000,-0.01600
,,,-0.00580399996,4.80000,-0.01600
,,,-0.00580199994,4.80000,-0.01600
,,,-0.00579999993,4.78000,-0.01600
,,,-0.00579799991,4.80000,-0.01600
,,,-0.00579599990,4.78000,-0.01600
,,,-0.00579399988,4.80000,-0.01600
,,,-0.00579199987,4.78000,-0.01600
,,,-0.00578999985,4.80000,-0.01600
,,,-0.00578799983,4.78000,-0.01600
,,,-0.00578599982,4.80000,-0.01600
,,,-0.00578399980,4.78000,-0.01600
,,,-0.00578199979,4.80000,-0.01600
,,,-0.00577999977,4.80000,-0.01400
,,,-0.00577799976,4.80000,-0.01600
,,,-0.00577600021,4.80000,-0.01600
,,,-0.00577400019,4.80000,-0.01800
,,,-0.00577200018,4.78000,-0.01600
,,,-0.00577000016,4.80000,-0.01800
,,,-0.00576800015,4.78000,-0.01600
,,,-0.00576600013,4.80000,-0.01600
,,,-0.00576400012,4.80000,-0.01600
,,,-0.00576200010,4.80000,-0.01600
,,,-0.00576000009,4.78000,-0.01600
,,,-0.00575800007,4.80000,-0.01600
,,,-0.00575600006,4.80000,-0.01600
,,,-0.00575400004,4.80000,-0.01600
,,,-0.00575200003,4.80000,-0.01600
,,,-0.00575000001,4.78000,-0.01600
,,,-0.00574800000,4.80000,-0.01800
,,,-0.00574599998,4.78000,-0.01600
,,,-0.00574399997,4.80000,-0.01600
,,,-0.00574199995,4.80000,-0.01600
,,,-0.00573999994,4.78000,-0.01600
,,,-0.00573799992,4.80000,-0.01600
,,,-0.00573599990,4.80000,-0.01600
,,,-0.00573399989,4.80000,-0.01600
,,,-0.00573199987,4.80000,-0.01800
,,,-0.00572999986,4.78000,-0.01800
,,,-0.00572799984,4.80000,-0.01600
,,,-0.00572599983,4.80000,-0.01600
,,,-0.00572399981,4.80000,-0.01800
,,,-0.00572199980,4.78000,-0.01600
,,,-0.00571999978,4.80000,-0.01800
,,,-0.00571799977,4.80000,-0.01600
,,,-0.00571600022,4.80000,-0.01600
,,,-0.00571400020,4.78000,-0.01800
,,,-0.00571200019,4.78000,-0.01600
,,,-0.00571000017,4.78000,-0.01800
,,,-0.00570800016,4.80000,-0.01600
,,,-0.00570600014,4.80000,-0.01800
,,,-0.00570400013,4.78000,-0.01600
,,,-0.00570200011,4.80000,-0.01600
,,,-0.00570000010,4.78000,-0.01600
,,,-0.00569800008,4.80000,-0.01800
,,,-0.00569600007,4.80000,-0.01600
,,,-0.00569400005,4.78000,-0.01600
,,,-0.00569200004,4.80000,-0.01600
,,,-0.00569000002,4.78000,-0.01600
,,,-0.00568800000,4.78000,-0.01600
,,,-0.00568599999,4.80000,-0.01600
,,,-0.00568399997,4.80000,-0.01600
,,,-0.00568199996,4.78000,-0.01600
,,,-0.00567999994,4.80000,-0.01600
,,,-0.00567799993,4.78000,-0.01600
,,,-0.00567599991,4.80000,-0.01600
,,,-0.00567399990,4.80000,-0.01600
,,,-0.00567199988,4.78000,-0.01600
,,,-0.00566999987,4.80000,-0.01600
,,,-0.00566799985,4.80000,-0.01600
,,,-0.00566599984,4.78000,-0.01800
,,,-0.00566399982,4.80000,-0.01600
,,,-0.00566199981,4.80000,-0.01600
,,,-0.00565999979,4.80000,-0.01600
,,,-0.00565799978,4.78000,-0.01400
,,,-0.00565599976,4.78000,-0.01600
,,,-0.00565400021,4.80000,-0.01600
,,,-0.00565200020,4.80000,-0.01600
,,,-0.00565000018,4.78000,-0.01600
,,,-0.00564800017,4.80000,-0.02800
,,,-0.00564600015,4.84000,-0.02800
,,,-0.00564400014,4.86000,-0.02800
,,,-0.00564200012,4.86000,-0.03000
,,,-0.00564000010,4.88000,-0.02800
,,,-0.00563800009,4.88000,-0.02800
,,,-0.00563600007,4.88000,-0.03000
,,,-0.00563400006,4.88000,-0.03000
,,,-0.00563200004,4.92000,-0.02800
,,,-0.00563000003,4.92000,-0.03000
,,,-0.00562800001,4.92000,-0.02600
,,,-0.00562600000,4.92000,-0.03000
,,,-0.00562399998,4.92000,-0.03000
,,,-0.00562199997,4.94000,-0.02800
,,,-0.00561999995,4.94000,-0.03000
,,,-0.00561799994,4.94000,-0.03000
,,,-0.00561599992,4.92000,-0.03000
,,,-0.00561399991,4.94000,-0.03000
,,,-0.00561199989,4.94000,-0.02800
,,,-0.00560999988,4.92000,-0.03000
,,,-0.00560799986,4.92000,-0.02800
,,,-0.00560599985,4.92000,-0.03000
,,,-0.00560399983,4.94000,-0.02800
,,,-0.00560199982,4.94000,-0.03000
,,,-0.00559999980,4.94000,-0.03000
,,,-0.00559799979,4.92000,-0.02800
,,,-0.00559599977,4.94000,-0.03000
,,,-0.00559399975,4.94000,-0.02800
,,,-0.00559200021,4.92000,-0.03000
,,,-0.00559000019,4.92000,-0.02800
,,,-0.00558800017,4.92000,-0.02800
,,,-0.00558600016,4.92000,-0.03000
,,,-0.00558400014,4.92000,-0.02800
,,,-0.00558200013,4.94000,-0.02800
,,,-0.00558000011,4.94000,-0.03000
,,,-0.00557800010,4.94000,-0.03000
,,,-0.00557600008,4.92000,-0.03000
,,,-0.00557400007,4.92000,-0.02800
,,,-0.00557200005,4.92000,-0.03000
,,,-0.00557000004,4.92000,-0.03000
,,,-0.00556800002,4.92000,-0.03000
,,,-0.00556600001,4.92000,-0.03000
,,,-0.00556399999,4.94000,-0.03000
,,,-0.00556199998,4.94000,-0.03000
,,,-0.00555999996,4.92000,-0.02800
,,,-0.00555799995,4.94000,-0.03000
,,,-0.00555599993,4.94000,-0.02800
,,,-0.00555399992,4.94000,-0.02800
,,,-0.00555199990,4.94000,-0.02800
,,,-0.00554999989,4.94000,-0.03000
,,,-0.00554799987,4.94000,-0.03000
,,,-0.00554599985,4.94000,-0.03000
,,,-0.00554399984,4.92000,-0.02800
,,,-0.00554199982,4.92000,-0.03000
,,,-0.00553999981,4.92000,-0.03000
,,,-0.00553799979,4.94000,-0.03000
,,,-0.00553599978,4.94000,-0.02800
,,,-0.00553399976,4.94000,-0.03000
,,,-0.00553200021,4.94000,-0.02800
,,,-0.00553000020,4.94000,-0.02800
,,,-0.00552800018,4.94000,-0.03000
,,,-0.00552600017,4.94000,-0.03000
,,,-0.00552400015,4.94000,-0.03000
,,,-0.00552200014,4.92000,-0.02800
,,,-0.00552000012,4.92000,-0.03000
,,,-0.00551800011,4.92000,-0.03000
,,,-0.00551600009,4.92000,-0.02800
,,,-0.00551400008,4.94000,-0.03000
,,,-0.00551200006,4.94000,-0.02800
,,,-0.00551000005,4.94000,-0.03000
,,,-0.00550800003,4.94000,-0.03000
,,,-0.00550600002,4.94000,-0.03000
,,,-0.00550400000,4.92000,-0.03000
,,,-0.00550199999,4.94000,-0.02800
,,,-0.00549999997,4.92000,-0.03000
,,,-0.00549799995,4.92000,-0.03000
,,,-0.00549599994,4.94000,-0.03000
,,,-0.00549399992,4.92000,-0.03000
,,,-0.00549199991,4.92000,-0.03000
,,,-0.00548999989,4.92000,-0.02800
,,,-0.00548799988,4.92000,-0.03000
,,,-0.00548599986,4.92000,-0.03000
,,,-0.00548399985,4.94000,-0.02800
,,,-0.00548199983,4.94000,-0.03000
,,,-0.00547999982,4.92000,-0.03000
,,,-0.00547799980,4.92000,-0.02800
,,,-0.00547599979,4.92000,-0.03000
,,,-0.00547399977,4.94000,-0.03000
,,,-0.00547199976,4.94000,-0.03000
,,,-0.00547000021,4.94000,-0.02800
,,,-0.00546800019,4.92000,-0.03000
,,,-0.00546600018,4.92000,-0.02800
,,,-0.00546400016,4.94000,-0.03000
,,,-0.00546200015,4.94000,-0.02800
,,,-0.00546000013,4.94000,-0.03000
,,,-0.00545800012,4.92000,-0.03000
,,,-0.00545600010,4.92000,-0.02800
,,,-0.00545400009,4.94000,-0.03000
,,,-0.00545200007,4.94000,-0.03000
,,,-0.00545000006,4.94000,-0.03000
,,,-0.00544800004,4.92000,-0.03000
,,,-0.00544600002,4.94000,-0.03000
,,,-0.00544400001,4.92000,-0.02800
,,,-0.00544199999,4.92000,-0.03000
,,,-0.00543999998,4.92000,-0.02800
,,,-0.00543799996,4.94000,-0.03000
,,,-0.00543599995,4.94000,-0.03000
,,,-0.00543399993,4.94000,-0.03000
,,,-0.00543199992,4.94000,-0.03000
,,,-0.00542999990,4.94000,-0.03000
,,,-0.00542799989,4.92000,-0.03000
,,,-0.00542599987,4.92000,-0.03200
,,,-0.00542399986,4.92000,-0.03000
,,,-0.00542199984,4.92000,-0.02800
,,,-0.00541999983,4.92000,-0.03000
,,,-0.00541799981,4.94000,-0.02800
,,,-0.00541599980,4.92000,-0.03000
,,,-0.00541399978,4.92000,-0.03000
,,,-0.00541199977,4.94000,-0.02800
,,,-0.00541000022,4.94000,-0.03000
,,,-0.00540800020,4.94000,-0.03000
,,,-0.00540600019,4.92000,-0.03000
,,,-0.00540400017,4.94000,-0.03000
,,,-0.00540200016,4.92000,-0.02800
,,,-0.00540000014,4.94000,-0.03000
,,,-0.00539800012,4.94000,-0.03000
,,,-0.00539600011,4.94000,-0.03000
,,,-0.00539400009,4.92000,-0.03000
,,,-0.00539200008,4.92000,-0.02800
,,,-0.00539000006,4.94000,-0.03000
,,,-0.00538800005,4.94000,-0.02800
,,,-0.00538600003,4.92000,-0.03000
,,,-0.00538400002,4.92000,-0.03000
,,,-0.00538200000,4.92000,-0.03000
,,,-0.00537999999,4.94000,-0.03000
,,,-0.00537799997,4.94000,-0.03000
,,,-0.00537599996,4.94000,-0.02800
,,,-0.00537399994,4.92000,-0.03000
,,,-0.00537199993,4.94000,-0.03000
,,,-0.00536999991,4.94000,-0.03000
,,,-0.00536799990,4.94000,-0.03000
,,,-0.00536599988,4.94000,-0.03000
,,,-0.00536399987,4.94000,-0.03000
,,,-0.00536199985,4.94000,-0.03000
,,,-0.00535999984,4.94000,-0.03000
,,,-0.00535799982,4.92000,-0.02800
,,,-0.00535599981,4.92000,-0.03000
,,,-0.00535399979,4.92000,-0.02800
,,,-0.00535199977,4.92000,-0.03000
,,,-0.00534999976,4.92000,-0.02800
,,,-0.00534800021,4.94000,-0.03000
,,,-0.00534600019,4.94000,-0.03000
,,,-0.00534400018,4.92000,-0.03000
,,,-0.00534200016,4.92000,-0.02800
,,,-0.00534000015,4.94000,-0.03000
,,,-0.00533800013,4.94000,-0.03000
,,,-0.00533600012,4.94000,-0.03000
,,,-0.00533400010,4.92000,-0.03000
,,,-0.00533200009,4.94000,-0.03000
,,,-0.00533000007,4.92000,-0.02800
,,,-0.00532800006,4.94000,-0.03000
,,,-0.00532600004,4.94000,-0.03000
,,,-0.00532400003,4.94000,-0.03000
,,,-0.00532200001,4.94000,-0.02800
,,,-0.00532000000,4.92000,-0.03000
,,,-0.00531799998,4.92000,-0.03000
,,,-0.00531599997,4.94000,-0.03000
,,,-0.00531399995,4.94000,-0.02800
,,,-0.00531199994,4.92000,-0.03000
,,,-0.00530999992,4.92000,-0.02800
,,,-0.00530799991,4.92000,-0.03000
,,,-0.00530599989,4.92000,-0.02800
,,,-0.00530399987,4.94000,-0.03000
,,,-0.00530199986,4.94000,-0.03000
,,,-0.00529999984,4.94000,-0.03000
,,,-0.00529799983,4.94000,-0.03000
,,,-0.00529599981,4.92000,-0.03000
,,,-0.00529399980,4.94000,-0.03200
,,,-0.00529199978,4.92000,-0.03000
,,,-0.00528999977,4.92000,-0.03000
,,,-0.00528800022,4.94000,-0.03000
,,,-0.00528600020,4.92000,-0.03000
,,,-0.00528400019,4.94000,-0.02800
,,,-0.00528200017,4.92000,-0.03000
,,,-0.00528000016,4.92000,-0.03000
,,,-0.00527800014,4.92000,-0.03000
,,,-0.00527600013,4.94000,-0.03000
,,,-0.00527400011,4.92000,-0.03000
,,,-0.00527200010,4.94000,-0.02800
,,,-0.00527000008,4.94000,-0.03000
,,,-0.00526800007,4.94000,-0.02800
,,,-0.00526600005,4.92000,-0.03000
,,,-0.00526400004,4.92000,-0.03000
,,,-0.00526200002,4.92000,-0.03000
,,,-0.00526000001,4.92000,-0.03000
,,,-0.00525799999,4.92000,-0.03000
,,,-0.00525599997,4.92000,-0.03000
,,,-0.00525399996,4.94000,-0.03200
,,,-0.00525199994,4.92000,-0.03000
,,,-0.00524999993,4.92000,-0.03000
,,,-0.00524799991,4.94000,-0.03000
,,,-0.00524599990,4.92000,-0.03000
,,,-0.00524399988,4.94000,-0.03000
,,,-0.00524199987,4.92000,-0.03000
,,,-0.00523999985,4.92000,-0.03000
,,,-0.00523799984,4.94000,-0.03200
,,,-0.00523599982,4.92000,-0.03000
,,,-0.00523399981,4.92000,-0.03000
,,,-0.00523199979,4.92000,-0.03000
,,,-0.00522999978,4.94000,-0.03000
,,,-0.00522799976,4.92000,-0.02800
,,,-0.00522600021,4.92000,-0.03000
,,,-0.00522400020,4.92000,-0.03000
,,,-0.00522200018,4.92000,-0.03200
,,,-0.00522000017,4.92000,-0.03000
,,,-0.00521800015,4.92000,-0.03000
,,,-0.00521600014,4.92000,-0.02800
,,,-0.00521400012,4.92000,-0.03000
,,,-0.00521200011,4.94000,-0.02800
,,,-0.00521000009,4.92000,-0.03000
,,,-0.00520800008,4.94000,-0.03000
,,,-0.00520600006,4.94000,-0.03000
,,,-0.00520400004,4.94000,-0.03000
,,,-0.00520200003,4.94000,-0.03000
,,,-0.00520000001,4.92000,-0.03000
,,,-0.00519800000,4.94000,-0.03000
,,,-0.00519599998,4.92000,-0.03000
,,,-0.00519399997,4.94000,-0.03000
,,,-0.00519199995,4.94000,-0.03200
,,,-0.00518999994,4.94000,-0.03200
,,,-0.00518799992,4.92000,-0.03000
,,,-0.00518599991,4.92000,-0.03000
,,,-0.00518399989,4.94000,-0.03000
,,,-0.00518199988,4.94000,-0.03000
,,,-0.00517999986,4.92000,-0.03000
,,,-0.00517799985,4.94000,-0.03000
,,,-0.00517599983,4.92000,-0.03000
,,,-0.00517399982,4.92000,-0.03000
,,,-0.00517199980,4.92000,-0.03000
,,,-0.00516999979,4.92000,-0.03000
,,,-0.00516799977,4.92000,-0.03000
,,,-0.00516599976,4.94000,-0.03000
,,,-0.00516400021,4.92000,-0.03000
,,,-0.00516200019,4.94000,-0.03000
,,,-0.00516000018,4.94000,-0.03000
,,,-0.00515800016,4.92000,-0.02800
,,,-0.00515600014,4.92000,-0.03000
,,,-0.00515400013,4.92000,-0.03000
,,,-0.00515200011,4.92000,-0.03000
,,,-0.00515000010,4.92000,-0.03200
,,,-0.00514800008,4.92000,-0.03000
,,,-0.00514600007,4.92000,-0.03000
,,,-0.00514400005,4.94000,-0.03000
,,,-0.00514200004,4.94000,-0.02800
,,,-0.00514000002,4.94000,-0.03000
,,,-0.00513800001,4.94000,-0.03000
,,,-0.00513599999,4.92000,-0.03000
,,,-0.00513399998,4.92000,-0.03000
,,,-0.00513199996,4.92000,-0.03000
,,,-0.00512999995,4.92000,-0.03000
,,,-0.00512799993,4.92000,-0.03000
,,,-0.00512599992,4.88000,-0.04000
,,,-0.00512399990,4.92000,-0.04000
,,,-0.00512199989,4.92000,-0.03800
,,,-0.00511999987,4.92000,-0.03800
,,,-0.00511799986,4.92000,-0.03800
,,,-0.00511599984,4.94000,-0.04000
,,,-0.00511399982,4.92000,-0.03800
,,,-0.00511199981,4.92000,-0.03800
,,,-0.00510999979,4.94000,-0.03800
,,,-0.00510799978,4.92000,-0.04000
,,,-0.00510599976,4.88000,-0.03800
,,,-0.00510400021,4.90000,-0.04000
,,,-0.00510200020,4.92000,-0.04000
,,,-0.00510000018,4.92000,-0.04000
,,,-0.00509800017,4.92000,-0.03800
,,,-0.00509600015,4.88000,-0.04000
,,,-0.00509400014,4.94000,-0.03800
,,,-0.00509200012,4.92000,-0.04000
,,,-0.00509000011,4.92000,-0.03800
,,,-0.00508800009,4.92000,-0.03800
,,,-0.00508600008,4.92000,-0.03800
,,,-0.00508400006,4.88000,-0.04000
,,,-0.00508200005,4.92000,-0.03800
,,,-0.00508000003,4.90000,-0.04000
,,,-0.00507800002,4.92000,-0.03800
,,,-0.00507600000,4.92000,-0.03800
,,,-0.00507399999,4.92000,-0.04000
,,,-0.00507199997,4.92000,-0.03800
,,,-0.00506999996,4.92000,-0.04000
,,,-0.00506799994,4.92000,-0.03800
,,,-0.00506599993,4.90000,-0.03800
,,,-0.00506399991,4.94000,-0.04000
,,,-0.00506199989,4.92000,-0.03800
,,,-0.00505999988,4.92000,-0.04000
,,,-0.00505799986,4.92000,-0.04000
,,,-0.00505599985,4.92000,-0.03800
,,,-0.00505399983,4.88000,-0.04000
,,,-0.00505199982,4.92000,-0.03800
,,,-0.00504999980,4.88000,-0.04000
,,,-0.00504799979,4.90000,-0.03800
,,,-0.00504599977,4.88000,-0.04000
,,,-0.00504399976,4.92000,-0.03800
,,,-0.00504200021,4.90000,-0.03800
,,,-0.00504000019,4.88000,-0.04000
,,,-0.00503800018,4.92000,-0.04000
,,,-0.00503600016,4.92000,-0.03800
,,,-0.00503400015,4.92000,-0.04000
,,,-0.00503200013,4.92000,-0.04000
,,,-0.00503000012,4.90000,-0.03800
,,,-0.00502800010,4.90000,-0.04000
,,,-0.00502600009,4.92000,-0.03800
,,,-0.00502400007,4.92000,-0.04200
,,,-0.00502200006,4.90000,-0.03800
,,,-0.00502000004,4.92000,-0.04000
,,,-0.00501800003,4.92000,-0.04000
,,,-0.00501600001,4.92000,-0.04000
,,,-0.00501399999,4.88000,-0.03800
,,,-0.00501199998,4.90000,-0.04200
,,,-0.00500999996,4.92000,-0.04000
,,,-0.00500799995,4.92000,-0.04000
,,,-0.00500599993,4.94000,-0.04000
,,,-0.00500399992,4.92000,-0.03800
,,,-0.00500199990,4.92000,-0.04000
,,,-0.00499999989,4.90000,-0.03800
,,,-0.00499799987,4.92000,-0.04000
,,,-0.00499599986,4.92000,-0.04000
,,,-0.00499399984,4.92000,-0.04000
,,,-0.00499199983,4.92000,-0.04000
,,,-0.00498999981,4.90000,-0.04000
,,,-0.00498799980,4.92000,-0.04000
,,,-0.00498599978,4.92000,-0.04000
,,,-0.00498399977,4.92000,-0.04000
,,,-0.00498200022,4.88000,-0.03800
,,,-0.00498000020,4.90000,-0.04000
,,,-0.00497800019,4.90000,-0.03800
,,,-0.00497600017,4.92000,-0.04000
,,,-0.00497400016,4.88000,-0.03800
,,,-0.00497200014,4.92000,-0.04000
,,,-0.00497000013,4.92000,-0.04000
,,,-0.00496800011,4.92000,-0.04000
,,,-0.00496600010,4.92000,-0.03800
,,,-0.00496400008,4.92000,-0.04000
,,,-0.00496200006,4.92000,-0.03800
,,,-0.00496000005,4.90000,-0.03800
,,,-0.00495800003,4.92000,-0.04000
,,,-0.00495600002,4.88000,-0.03800
,,,-0.00495400000,4.92000,-0.04000
,,,-0.00495199999,4.92000,-0.04000
,,,-0.00494999997,4.90000,-0.04000
,,,-0.00494799996,4.92000,-0.03800
,,,-0.00494599994,4.92000,-0.04000
,,,-0.00494399993,4.92000,-0.03800
,,,-0.00494199991,4.92000,-0.04000
,,,-0.00493999990,4.92000,-0.04000
,,,-0.00493799988,4.92000,-0.03800
,,,-0.00493599987,4.92000,-0.04000
,,,-0.00493399985,4.92000,-0.03800
,,,-0.00493199984,4.88000,-0.04000
,,,-0.00492999982,4.92000,-0.04000
,,,-0.00492799981,4.94000,-0.03800
,,,-0.00492599979,4.88000,-0.04000
,,,-0.00492399978,4.90000,-0.03800
,,,-0.00492199976,4.92000,-0.04000
,,,-0.00492000021,4.90000,-0.04000
,,,-0.00491800020,4.92000,-0.04000
,,,-0.00491600018,4.92000,-0.03800
,,,-0.00491400016,4.92000,-0.04000
,,,-0.00491200015,4.92000,-0.04000
,,,-0.00491000013,4.88000,-0.04000
,,,-0.00490800012,4.92000,-0.04000
,,,-0.00490600010,4.88000,-0.04000
,,,-0.00490400009,4.92000,-0.04000
,,,-0.00490200007,4.88000,-0.04000
,,,-0.00490000006,4.92000,-0.04000
,,,-0.00489800004,4.92000,-0.04000
,,,-0.00489600003,4.92000,-0.04000
,,,-0.00489400001,4.92000,-0.04000
,,,-0.00489200000,4.88000,-0.04000
,,,-0.00488999998,4.92000,-0.04000
,,,-0.00488799997,4.88000,-0.04000
,,,-0.00488599995,4.92000,-0.04000
,,,-0.00488399994,4.88000,-0.03800
,,,-0.00488199992,4.90000,-0.04000
,,,-0.00487999991,4.88000,-0.03800
,,,-0.00487799989,4.94000,-0.04000
,,,-0.00487599988,4.92000,-0.04000
,,,-0.00487399986,4.92000,-0.03800
,,,-0.00487199984,4.92000,-0.04000
,,,-0.00486999983,4.88000,-0.04000
,,,-0.00486799981,4.92000,-0.04000
,,,-0.00486599980,4.92000,-0.03800
,,,-0.00486399978,4.92000,-0.04000
,,,-0.00486199977,4.94000,-0.04000
,,,-0.00486000022,4.88000,-0.03800
,,,-0.00485800020,4.94000,-0.04200
,,,-0.00485600019,4.92000,-0.03800
,,,-0.00485400017,4.88000,-0.04000
,,,-0.00485200016,4.92000,-0.04000
,,,-0.00485000014,4.88000,-0.04000
,,,-0.00484800013,4.94000,-0.04200
,,,-0.00484600011,4.92000,-0.03800
,,,-0.00484400010,4.92000,-0.04000
,,,-0.00484200008,4.92000,-0.03800
,,,-0.00484000007,4.92000,-0.04000
,,,-0.00483800005,4.88000,-0.04000
,,,-0.00483600004,4.92000,-0.03800
,,,-0.00483400002,4.94000,-0.04000
,,,-0.00483200001,4.92000,-0.03800
,,,-0.00482999999,4.92000,-0.04000
,,,-0.00482799998,4.92000,-0.04000
,,,-0.00482599996,4.92000,-0.04000
,,,-0.00482399995,4.92000,-0.03800
,,,-0.00482199993,4.92000,-0.04000
,,,-0.00481999991,4.92000,-0.03800
,,,-0.00481799990,4.92000,-0.04000
,,,-0.00481599988,4.88000,-0.04000
,,,-0.00481399987,4.90000,-0.04000
,,,-0.00481199985,4.88000,-0.04000
,,,-0.00480999984,4.90000,-0.04000
,,,-0.00480799982,4.92000,-0.04000
,,,-0.00480599981,4.90000,-0.03800
,,,-0.00480399979,4.92000,-0.03800
,,,-0.00480199978,4.92000,-0.03800
,,,-0.00479999976,4.92000,-0.03800
,,,-0.00479800021,4.92000,-0.04000
,,,-0.00479600020,4.92000,-0.04000
,,,-0.00479400018,4.92000,-0.04000
,,,-0.00479200017,4.92000,-0.04000
,,,-0.00479000015,4.92000,-0.04000
,,,-0.00478800014,4.90000,-0.04200
,,,-0.00478600012,4.92000,-0.04000
,,,-0.00478400011,4.92000,-0.04000
,,,-0.00478200009,4.90000,-0.04000
,,,-0.00478000008,4.92000,-0.04000
,,,-0.00477800006,4.92000,-0.03800
,,,-0.00477600005,4.92000,-0.04200
,,,-0.00477400003,4.88000,-0.04000
,,,-0.00477200001,4.88000,-0.04000
,,,-0.00477000000,4.92000,-0.04000
,,,-0.00476799998,4.88000,-0.04000
,,,-0.00476599997,4.92000,-0.04000
,,,-0.00476399995,4.92000,-0.04000
,,,-0.00476199994,4.92000,-0.04000
,,,-0.00475999992,4.94000,-0.04000
,,,-0.00475799991,4.92000,-0.04000
,,,-0.00475599989,4.94000,-0.04000
,,,-0.00475399988,4.88000,-0.03800
,,,-0.00475199986,4.92000,-0.04000
,,,-0.00474999985,4.92000,-0.04200
,,,-0.00474799983,4.88000,-0.04000
,,,-0.00474599982,4.90000,-0.04000
,,,-0.00474399980,4.92000,-0.04000
,,,-0.00474199979,4.90000,-0.04000
,,,-0.00473999977,4.92000,-0.04000
,,,-0.00473799976,4.94000,-0.04200
,,,-0.00473600021,4.92000,-0.04000
,,,-0.00473400019,4.92000,-0.04000
,,,-0.00473200018,4.94000,-0.04000
,,,-0.00473000016,4.92000,-0.03800
,,,-0.00472800015,4.88000,-0.04000
,,,-0.00472600013,4.92000,-0.03800
,,,-0.00472400011,4.88000,-0.04000
,,,-0.00472200010,4.94000,-0.04000
,,,-0.00472000008,4.94000,-0.04000
,,,-0.00471800007,4.92000,-0.04000
,,,-0.00471600005,4.94000,-0.04200
,,,-0.00471400004,4.92000,-0.03800
,,,-0.00471200002,4.94000,-0.04000
,,,-0.00471000001,4.88000,-0.04000
,,,-0.00470799999,4.90000,-0.04000
,,,-0.00470599998,4.88000,-0.04000
,,,-0.00470399996,4.90000,-0.03800
,,,-0.00470199995,4.90000,-0.04000
,,,-0.00469999993,4.90000,-0.04000
,,,-0.00469799992,4.92000,-0.04000
,,,-0.00469599990,4.92000,-0.04000
,,,-0.00469399989,4.88000,-0.03800
,,,-0.00469199987,4.94000,-0.04000
,,,-0.00468999986,4.92000,-0.04000
,,,-0.00468799984,4.92000,-0.04000
,,,-0.00468599983,4.90000,-0.04000
,,,-0.00468399981,4.92000,-0.03800
,,,-0.00468199980,4.92000,-0.04000
,,,-0.00467999978,4.92000,-0.03800
,,,-0.00467799976,4.92000,-0.04000
,,,-0.00467600022,4.92000,-0.04000
,,,-0.00467400020,4.92000,-0.04000
,,,-0.00467200018,4.94000,-0.04000
,,,-0.00467000017,4.92000,-0.04000
,,,-0.00466800015,4.92000,-0.04000
,,,-0.00466600014,4.92000,-0.03800
,,,-0.00466400012,4.92000,-0.04000
,,,-0.00466200011,4.92000,-0.04000
,,,-0.00466000009,4.92000,-0.04000
,,,-0.00465800008,4.92000,-0.04000
,,,-0.00465600006,4.92000,-0.03800
,,,-0.00465400005,4.92000,-0.04000
,,,-0.00465200003,4.92000,-0.04000
,,,-0.00465000002,4.94000,-0.03800
,,,-0.00464800000,4.92000,-0.04000
,,,-0.00464599999,4.92000,-0.03800
,,,-0.00464399997,4.94000,-0.04000
,,,-0.00464199996,4.92000,-0.04000
,,,-0.00463999994,4.92000,-0.04000
,,,-0.00463799993,4.88000,-0.04000
,,,-0.00463599991,4.94000,-0.04000
,,,-0.00463399990,4.92000,-0.04000
,,,-0.00463199988,4.92000,-0.04000
,,,-0.00462999986,4.92000,-0.04000
,,,-0.00462799985,4.92000,-0.04000
,,,-0.00462599983,4.92000,-0.04000
,,,-0.00462399982,4.92000,-0.04200
,,,-0.00462199980,4.92000,-0.04000
,,,-0.00461999979,4.92000,-0.04000
,,,-0.00461799977,4.92000,-0.03800
,,,-0.00461599976,4.94000,-0.03800
,,,-0.00461400021,4.92000,-0.04000
,,,-0.00461200019,4.92000,-0.04000
,,,-0.00461000018,4.92000,-0.04000
,,,-0.00460800016,4.92000,-0.04000
,,,-0.00460600015,4.92000,-0.04000
,,,-0.00460400013,4.92000,-0.04000
,,,-0.00460200012,4.92000,-0.03800
,,,-0.00460000010,4.88000,-0.04000
,,,-0.00459800009,4.92000,-0.04000
,,,-0.00459600007,4.92000,-0.04000
,,,-0.00459400006,4.92000,-0.04000
,,,-0.00459200004,4.92000,-0.04000
,,,-0.00459000003,4.92000,-0.04000
,,,-0.00458800001,4.88000,-0.04200
,,,-0.00458600000,4.88000,-0.04000
,,,-0.00458399998,4.92000,-0.04000
,,,-0.00458199997,4.88000,-0.04000
,,,-0.00457999995,4.92000,-0.04000
,,,-0.00457799993,4.92000,-0.04000
,,,-0.00457599992,4.92000,-0.04000
,,,-0.00457399990,4.92000,-0.04200
,,,-0.00457199989,4.92000,-0.04000
,,,-0.00456999987,4.90000,-0.04200
,,,-0.00456799986,4.90000,-0.04000
,,,-0.00456599984,4.90000,-0.03800
,,,-0.00456399983,4.88000,-0.04000
,,,-0.00456199981,4.92000,-0.04000
,,,-0.00455999980,4.88000,-0.04000
,,,-0.00455799978,4.92000,-0.04000
,,,-0.00455599977,4.92000,-0.04000
,,,-0.00455400022,4.92000,-0.04000
,,,-0.00455200020,4.92000,-0.04000
,,,-0.00455000019,4.88000,-0.04000
,,,-0.00454800017,4.92000,-0.04000
,,,-0.00454600016,4.94000,-0.04000
,,,-0.00454400014,4.94000,-0.04000
,,,-0.00454200013,4.92000,-0.04000
,,,-0.00454000011,4.92000,-0.04000
,,,-0.00453800010,4.90000,-0.03800
,,,-0.00453600008,4.88000,-0.04000
,,,-0.00453400007,4.92000,-0.04200
,,,-0.00453200005,4.92000,-0.04000
,,,-0.00453000003,4.90000,-0.04000
,,,-0.00452800002,4.92000,-0.03800
,,,-0.00452600000,4.92000,-0.04000
,,,-0.00452399999,4.92000,-0.04000
,,,-0.00452199997,4.88000,-0.04000
,,,-0.00451999996,4.92000,-0.04000
,,,-0.00451799994,4.90000,-0.04000
,,,-0.00451599993,4.92000,-0.04200
,,,-0.00451399991,4.90000,-0.04000
,,,-0.00451199990,4.94000,-0.04000
,,,-0.00450999988,4.92000,-0.04000
,,,-0.00450799987,4.92000,-0.04000
,,,-0.00450599985,4.90000,-0.04000
,,,-0.00450399984,4.90000,-0.04000
,,,-0.00450199982,4.92000,-0.04000
,,,-0.00449999981,4.92000,-0.04000
,,,-0.00449799979,4.92000,-0.04000
,,,-0.00449599978,4.92000,-0.04000
,,,-0.00449399976,4.92000,-0.04200
,,,-0.00449200021,4.92000,-0.04000
,,,-0.00449000020,4.88000,-0.04000
,,,-0.00448800018,4.92000,-0.04200
,,,-0.00448600017,4.92000,-0.04000
,,,-0.00448400015,4.92000,-0.04000
,,,-0.00448200013,4.92000,-0.04000
,,,-0.00448000012,4.92000,-0.04000
,,,-0.00447800010,4.90000,-0.03800
,,,-0.00447600009,4.92000,-0.04000
,,,-0.00447400007,4.90000,-0.04000
,,,-0.00447200006,4.92000,-0.04000
,,,-0.00447000004,4.92000,-0.04000
,,,-0.00446800003,4.90000,-0.04000
,,,-0.00446600001,4.92000,-0.04000
,,,-0.00446400000,4.92000,-0.04000
,,,-0.00446199998,4.92000,-0.03800
,,,-0.00445999997,4.90000,-0.04000
,,,-0.00445799995,4.92000,-0.03800
,,,-0.00445599994,4.92000,-0.04000
,,,-0.00445399992,4.92000,-0.04000
,,,-0.00445199991,4.92000,-0.03800
,,,-0.00444999989,4.90000,-0.04200
,,,-0.00444799988,4.92000,-0.03800
,,,-0.00444599986,4.90000,-0.04200
,,,-0.00444399985,4.92000,-0.04000
,,,-0.00444199983,4.88000,-0.04000
,,,-0.00443999982,4.92000,-0.04000
,,,-0.00443799980,4.92000,-0.04000
,,,-0.00443599978,4.92000,-0.04200
,,,-0.00443399977,4.92000,-0.04000
,,,-0.00443200022,4.92000,-0.04000
,,,-0.00443000020,4.92000,-0.04000
,,,-0.00442800019,4.92000,-0.04000
,,,-0.00442600017,4.92000,-0.04000
,,,-0.00442400016,4.92000,-0.04000
,,,-0.00442200014,4.92000,-0.04000
,,,-0.00442000013,4.88000,-0.03800
,,,-0.00441800011,4.90000,-0.04000
,,,-0.00441600010,4.90000,-0.04000
,,,-0.00441400008,4.92000,-0.04000
,,,-0.00441200007,4.92000,-0.04000
,,,-0.00441000005,4.92000,-0.04000
,,,-0.00440800004,4.94000,-0.04200
,,,-0.00440600002,4.92000,-0.04000
,,,-0.00440400001,4.92000,-0.04000
,,,-0.00440199999,4.92000,-0.04000
,,,-0.00439999998,4.88000,-0.03800
,,,-0.00439799996,4.92000,-0.04000
,,,-0.00439599995,4.92000,-0.04000
,,,-0.00439399993,4.92000,-0.04000
,,,-0.00439199992,4.92000,-0.04000
,,,-0.00438999990,4.94000,-0.04000
,,,-0.00438799988,4.92000,-0.04000
,,,-0.00438599987,4.92000,-0.04000
,,,-0.00438399985,4.92000,-0.03800
,,,-0.00438199984,4.88000,-0.04200
,,,-0.00437999982,4.92000,-0.03800
,,,-0.00437799981,4.88000,-0.04000
,,,-0.00437599979,4.94000,-0.04000
,,,-0.00437399978,4.90000,-0.03800
,,,-0.00437199976,4.92000,-0.04000
,,,-0.00437000021,4.92000,-0.04000
,,,-0.00436800020,4.92000,-0.04000
,,,-0.00436600018,4.90000,-0.04000
,,,-0.00436400017,4.92000,-0.04000
,,,-0.00436200015,4.90000,-0.04000
,,,-0.00436000014,4.92000,-0.04000
,,,-0.00435800012,4.92000,-0.04000
,,,-0.00435600011,4.94000,-0.04000
,,,-0.00435400009,4.92000,-0.04000
,,,-0.00435200008,4.92000,-0.04000
,,,-0.00435000006,4.92000,-0.04000
,,,-0.00434800005,4.90000,-0.04000
,,,-0.00434600003,4.92000,-0.04200
,,,-0.00434400002,4.88000,-0.04000
,,,-0.00434200000,4.92000,-0.04000
,,,-0.00433999998,4.92000,-0.04000
,,,-0.00433799997,4.92000,-0.04000
,,,-0.00433599995,4.92000,-0.04000
,,,-0.00433399994,4.92000,-0.04000
,,,-0.00433199992,4.94000,-0.04000
,,,-0.00432999991,4.88000,-0.04000
,,,-0.00432799989,4.90000,-0.04200
,,,-0.00432599988,4.92000,-0.03800
,,,-0.00432399986,4.88000,-0.04000
,,,-0.00432199985,4.90000,-0.04000
,,,-0.00431999983,4.88000,-0.04000
,,,-0.00431799982,4.88000,-0.04000
,,,-0.00431599980,4.92000,-0.04000
,,,-0.00431399979,4.94000,-0.04000
,,,-0.00431199977,4.92000,-0.03800
,,,-0.00430999976,4.92000,-0.04000
,,,-0.00430800021,4.88000,-0.04000
,,,-0.00430600019,4.92000,-0.04000
,,,-0.00430400018,4.92000,-0.04000
,,,-0.00430200016,4.92000,-0.04000
,,,-0.00430000015,4.90000,-0.04000
,,,-0.00429800013,4.92000,-0.03800
,,,-0.00429600012,4.94000,-0.04000
,,,-0.00429400010,4.92000,-0.04000
,,,-0.00429200009,4.88000,-0.04000
,,,-0.00429000007,4.92000,-0.04000
,,,-0.00428800005,4.90000,-0.04000
,,,-0.00428600004,4.92000,-0.04200
,,,-0.00428400002,4.88000,-0.04000
,,,-0.00428200001,4.94000,-0.04000
,,,-0.00427999999,4.92000,-0.04000
,,,-0.00427799998,4.88000,-0.03800
,,,-0.00427599996,4.88000,-0.04000
,,,-0.00427399995,4.92000,-0.04200
,,,-0.00427199993,4.92000,-0.04000
,,,-0.00426999992,4.90000,-0.04000
,,,-0.00426799990,4.92000,-0.03800
,,,-0.00426599989,4.88000,-0.04000
,,,-0.00426399987,4.92000,-0.04000
,,,-0.00426199986,4.92000,-0.04000
,,,-0.00425999984,4.90000,-0.04000
,,,-0.00425799983,4.94000,-0.04000
,,,-0.00425599981,4.92000,-0.04000
,,,-0.00425399980,4.90000,-0.04000
,,,-0.00425199978,4.90000,-0.04000
,,,-0.00424999977,4.94000,-0.04000
,,,-0.00424800022,4.90000,-0.04000
,,,-0.00424600020,4.92000,-0.04200
,,,-0.00424400019,4.92000,-0.04000
,,,-0.00424200017,4.90000,-0.04000
,,,-0.00424000015,4.92000,-0.03800
,,,-0.00423800014,4.92000,-0.04000
,,,-0.00423600012,4.92000,-0.04000
,,,-0.00423400011,4.94000,-0.04000
,,,-0.00423200009,4.92000,-0.04000
,,,-0.00423000008,4.88000,-0.04000
,,,-0.00422800006,4.92000,-0.04000
,,,-0.00422600005,4.92000,-0.04000
,,,-0.00422400003,4.92000,-0.04000
,,,-0.00422200002,4.92000,-0.04000
,,,-0.00422000000,4.94000,-0.04200
,,,-0.00421799999,4.92000,-0.04000
,,,-0.00421599997,4.92000,-0.04000
,,,-0.00421399996,4.92000,-0.04000
,,,-0.00421199994,4.92000,-0.04000
,,,-0.00420999993,4.92000,-0.04000
,,,-0.00420799991,4.92000,-0.04000
,,,-0.00420599990,4.92000,-0.04000
,,,-0.00420399988,4.88000,-0.03800
,,,-0.00420199987,4.94000,-0.04000
,,,-0.00419999985,4.92000,-0.03800
,,,-0.00419799984,4.92000,-0.03800
,,,-0.00419599982,4.92000,-0.04200
,,,-0.00419399980,4.92000,-0.04000
,,,-0.00419199979,4.88000,-0.04000
,,,-0.00418999977,4.92000,-0.04200
,,,-0.00418799976,4.92000,-0.04000
,,,-0.00418600021,4.94000,-0.04200
,,,-0.00418400019,4.88000,-0.04000
,,,-0.00418200018,4.92000,-0.04200
,,,-0.00418000016,4.94000,-0.04000
,,,-0.00417800015,4.92000,-0.04000
,,,-0.00417600013,4.92000,-0.04000
,,,-0.00417400012,4.92000,-0.04000
,,,-0.00417200010,4.94000,-0.04000
,,,-0.00417000009,4.92000,-0.04000
,,,-0.00416800007,4.92000,-0.04000
,,,-0.00416600006,4.94000,-0.04200
,,,-0.00416400004,4.92000,-0.04000
,,,-0.00416200003,4.92000,-0.04000
,,,-0.00416000001,4.92000,-0.04000
,,,-0.00415800000,4.90000,-0.04000
,,,-0.00415599998,4.92000,-0.04000
,,,-0.00415399997,4.92000,-0.04000
,,,-0.00415199995,4.92000,-0.04000
,,,-0.00414999994,4.92000,-0.04000
,,,-0.00414799992,4.94000,-0.04200
,,,-0.00414599990,4.92000,-0.04000
,,,-0.00414399989,4.90000,-0.04000
,,,-0.00414199987,4.92000,-0.04000
,,,-0.00413999986,4.92000,-0.04000
,,,-0.00413799984,4.92000,-0.04200
,,,-0.00413599983,4.90000,-0.04000
,,,-0.00413399981,4.90000,-0.04000
,,,-0.00413199980,4.92000,-0.04000
,,,-0.00412999978,4.92000,-0.04000
,,,-0.00412799977,4.90000,-0.04000
,,,-0.00412600022,4.90000,-0.04000
,,,-0.00412400020,4.92000,-0.04000
,,,-0.00412200019,4.94000,-0.04000
,,,-0.00412000017,4.92000,-0.03800
,,,-0.00411800016,4.92000,-0.04000
,,,-0.00411600014,4.92000,-0.04000
,,,-0.00411400013,4.92000,-0.04000
,,,-0.00411200011,4.90000,-0.03800
,,,-0.00411000010,4.92000,-0.04000
,,,-0.00410800008,4.92000,-0.04000
,,,-0.00410600007,4.92000,-0.04200
,,,-0.00410400005,4.92000,-0.04000
,,,-0.00410200004,4.92000,-0.04000
,,,-0.00410000002,4.92000,-0.04000
,,,-0.00409800000,4.92000,-0.04000
,,,-0.00409599999,4.92000,-0.04200
,,,-0.00409399997,4.90000,-0.04000
,,,-0.00409199996,4.92000,-0.04000
,,,-0.00408999994,4.92000,-0.04000
,,,-0.00408799993,4.90000,-0.04000
,,,-0.00408599991,4.94000,-0.04200
,,,-0.00408399990,4.92000,-0.04000
,,,-0.00408199988,4.90000,-0.04000
,,,-0.00407999987,4.90000,-0.03800
,,,-0.00407799985,4.94000,-0.04000
,,,-0.00407599984,4.92000,-0.04000
,,,-0.00407399982,4.92000,-0.04000
,,,-0.00407199981,4.92000,-0.04000
,,,-0.00406999979,4.94000,-0.04000
,,,-0.00406799978,4.92000,-0.04000
,,,-0.00406599976,4.92000,-0.04000
,,,-0.00406400021,4.92000,-0.04000
,,,-0.00406200020,4.92000,-0.04000
,,,-0.00406000018,4.92000,-0.04200
,,,-0.00405800017,4.92000,-0.04000
,,,-0.00405600015,4.92000,-0.04200
,,,-0.00405400014,4.92000,-0.04000
,,,-0.00405200012,4.90000,-0.04000
,,,-0.00405000011,4.92000,-0.04000
,,,-0.00404800009,4.90000,-0.04000
,,,-0.00404600007,4.94000,-0.04000
,,,-0.00404400006,4.92000,-0.04000
,,,-0.00404200004,4.94000,-0.04000
,,,-0.00404000003,4.88000,-0.04000
,,,-0.00403800001,4.92000,-0.04000
,,,-0.00403600000,4.92000,-0.04000
,,,-0.00403399998,4.92000,-0.04200
,,,-0.00403199997,4.88000,-0.03800
,,,-0.00402999995,4.92000,-0.04000
,,,-0.00402799994,4.94000,-0.04000
,,,-0.00402599992,4.92000,-0.04200
,,,-0.00402399991,4.94000,-0.04000
,,,-0.00402199989,4.92000,-0.04000
,,,-0.00401999988,4.94000,-0.04000
,,,-0.00401799986,4.92000,-0.04000
,,,-0.00401599985,4.88000,-0.04000
,,,-0.00401399983,4.88000,-0.04000
,,,-0.00401199982,4.92000,-0.04000
,,,-0.00400999980,4.92000,-0.04000
,,,-0.00400799979,4.92000,-0.04000
,,,-0.00400599977,4.90000,-0.04000
,,,-0.00400400022,4.92000,-0.04000
,,,-0.00400200021,4.92000,-0.04000
,,,-0.00400000019,4.94000,-0.04200
,,,-0.00399800017,4.92000,-0.04000
,,,-0.00399600016,4.92000,-0.04000
,,,-0.00399400014,4.92000,-0.04000
,,,-0.00399200013,4.92000,-0.03800
,,,-0.00399000011,4.92000,-0.04000
,,,-0.00398800010,4.92000,-0.04000
,,,-0.00398600008,4.92000,-0.04000
,,,-0.00398400007,4.94000,-0.04000
,,,-0.00398200005,4.92000,-0.04000
,,,-0.00398000004,4.94000,-0.04200
,,,-0.00397800002,4.90000,-0.04000
,,,-0.00397600001,4.92000,-0.04000
,,,-0.00397399999,4.90000,-0.04000
,,,-0.00397199998,4.92000,-0.04000
,,,-0.00396999996,4.92000,-0.04000
,,,-0.00396799995,4.90000,-0.04000
,,,-0.00396599993,4.92000,-0.04000
,,,-0.00396399992,4.92000,-0.04000
,,,-0.00396199990,4.92000,-0.04000
,,,-0.00395999989,4.92000,-0.04000
,,,-0.00395799987,4.94000,-0.04200
,,,-0.00395599985,4.92000,-0.04000
,,,-0.00395399984,4.92000,-0.04200
,,,-0.00395199982,4.92000,-0.04000
,,,-0.00394999981,4.92000,-0.04200
,,,-0.00394799979,4.90000,-0.04000
,,,-0.00394599978,4.94000,-0.04000
,,,-0.00394399976,4.90000,-0.04000
,,,-0.00394200021,4.92000,-0.04000
,,,-0.00394000020,4.92000,-0.04000
,,,-0.00393800018,4.92000,-0.04000
,,,-0.00393600017,4.92000,-0.04000
,,,-0.00393400015,4.92000,-0.03800
,,,-0.00393200014,4.90000,-0.04000
,,,-0.00393000012,4.92000,-0.04000
,,,-0.00392800011,4.92000,-0.04000
,,,-0.00392600009,4.92000,-0.04000
,,,-0.00392400008,4.92000,-0.04000
,,,-0.00392200006,4.92000,-0.04200
,,,-0.00392000005,4.92000,-0.04000
,,,-0.00391800003,4.92000,-0.04000
,,,-0.00391600002,4.92000,-0.04000
,,,-0.00391400000,4.92000,-0.04000
,,,-0.00391199999,4.92000,-0.04000
,,,-0.00390999997,4.92000,-0.04000
,,,-0.00390799996,4.92000,-0.04000
,,,-0.00390599994,4.88000,-0.04000
,,,-0.00390399992,4.92000,-0.04000
,,,-0.00390199991,4.92000,-0.04000
,,,-0.00389999989,4.92000,-0.04200
,,,-0.00389799988,4.92000,-0.04000
,,,-0.00389600010,4.92000,-0.04200
,,,-0.00389400008,4.92000,-0.04000
,,,-0.00389200007,4.94000,-0.04000
,,,-0.00389000005,4.94000,-0.04000
,,,-0.00388800004,4.92000,-0.04200
,,,-0.00388600002,4.92000,-0.04000
,,,-0.00388400001,4.90000,-0.04200
,,,-0.00388199999,4.92000,-0.04000
,,,-0.00387999997,4.88000,-0.04000
,,,-0.00387799996,4.88000,-0.04000
,,,-0.00387599994,4.92000,-0.04000
,,,-0.00387399993,4.92000,-0.04200
,,,-0.00387199991,4.92000,-0.04000
,,,-0.00386999990,4.92000,-0.04200
,,,-0.00386799988,4.92000,-0.04000
,,,-0.00386600010,4.92000,-0.04000
,,,-0.00386400009,4.92000,-0.04200
,,,-0.00386200007,4.92000,-0.04000
,,,-0.00386000006,4.92000,-0.04000
,,,-0.00385800004,4.90000,-0.04000
,,,-0.00385600002,4.92000,-0.04000
,,,-0.00385400001,4.92000,-0.03800
,,,-0.00385199999,4.94000,-0.04000
,,,-0.00384999998,4.92000,-0.04000
,,,-0.00384799996,4.92000,-0.04200
,,,-0.00384599995,4.92000,-0.04000
,,,-0.00384399993,4.90000,-0.04000
,,,-0.00384199992,4.92000,-0.04200
,,,-0.00383999990,4.90000,-0.04000
,,,-0.00383799989,4.92000,-0.04000
,,,-0.00383600011,4.92000,-0.04000
,,,-0.00383400009,4.92000,-0.04000
,,,-0.00383200007,4.94000,-0.04000
,,,-0.00383000006,4.92000,-0.04000
,,,-0.00382800004,4.92000,-0.04000
,,,-0.00382600003,4.92000,-0.04200
,,,-0.00382400001,4.92000,-0.04000
,,,-0.00382200000,4.88000,-0.04000
,,,-0.00381999998,4.90000,-0.04200
,,,-0.00381799997,4.90000,-0.04000
,,,-0.00381599995,4.92000,-0.04000
,,,-0.00381399994,4.88000,-0.04200
,,,-0.00381199992,4.92000,-0.04000
,,,-0.00380999991,4.90000,-0.04000
,,,-0.00380799989,4.94000,-0.04000
,,,-0.00380599988,4.92000,-0.04000
,,,-0.00380400009,4.94000,-0.04000
,,,-0.00380200008,4.92000,-0.04000
,,,-0.00380000006,4.92000,-0.04200
,,,-0.00379800005,4.92000,-0.04000
,,,-0.00379600003,4.92000,-0.04000
,,,-0.00379400002,4.92000,-0.04000
,,,-0.00379200000,4.92000,-0.04000
,,,-0.00378999999,4.92000,-0.04200
,,,-0.00378799997,4.92000,-0.04000
,,,-0.00378599996,4.92000,-0.04000
,,,-0.00378399994,4.88000,-0.04000
,,,-0.00378199993,4.92000,-0.04200
,,,-0.00377999991,4.92000,-0.04000
,,,-0.00377799990,4.92000,-0.04000
,,,-0.00377599988,4.92000,-0.04000
,,,-0.00377400010,4.92000,-0.04000
,,,-0.00377200008,4.92000,-0.04000
,,,-0.00377000007,4.92000,-0.04000
,,,-0.00376800005,4.92000,-0.04000
,,,-0.00376600004,4.92000,-0.04000
,,,-0.00376400002,4.92000,-0.04000
,,,-0.00376200001,4.92000,-0.04000
,,,-0.00375999999,4.92000,-0.04000
,,,-0.00375799998,4.92000,-0.04200
,,,-0.00375599996,4.92000,-0.03800
,,,-0.00375399995,4.92000,-0.04000
,,,-0.00375199993,4.92000,-0.04000
,,,-0.00374999992,4.88000,-0.04000
,,,-0.00374799990,4.92000,-0.04000
,,,-0.00374599989,4.92000,-0.03800
,,,-0.00374400010,4.92000,-0.04200
,,,-0.00374200009,4.94000,-0.04000
,,,-0.00374000007,4.92000,-0.04000
,,,-0.00373800006,4.92000,-0.04200
,,,-0.00373600004,4.88000,-0.04200
,,,-0.00373400003,4.92000,-0.04000
,,,-0.00373200001,4.92000,-0.04000
,,,-0.00373000000,4.92000,-0.04200
,,,-0.00372799998,4.92000,-0.04000
,,,-0.00372599997,4.92000,-0.04200
,,,-0.00372399995,4.92000,-0.04000
,,,-0.00372199994,4.90000,-0.04000
,,,-0.00371999992,4.92000,-0.04000
,,,-0.00371799991,4.92000,-0.04000
,,,-0.00371599989,4.92000,-0.04000
,,,-0.00371399987,4.92000,-0.04000
,,,-0.00371200009,4.90000,-0.04000
,,,-0.00371000008,4.92000,-0.03800
,,,-0.00370800006,4.92000,-0.04200
,,,-0.00370600005,4.92000,-0.04000
,,,-0.00370400003,4.92000,-0.04200
,,,-0.00370200002,4.92000,-0.04000
,,,-0.00370000000,4.92000,-0.04200
,,,-0.00369799999,4.92000,-0.04000
,,,-0.00369599997,4.92000,-0.04000
,,,-0.00369399996,4.92000,-0.04000
,,,-0.00369199994,4.88000,-0.03800
,,,-0.00368999992,4.92000,-0.04200
,,,-0.00368799991,4.90000,-0.04000
,,,-0.00368599989,4.92000,-0.04000
,,,-0.00368399988,4.92000,-0.04000
,,,-0.00368200010,4.92000,-0.04000
,,,-0.00368000008,4.92000,-0.03800
,,,-0.00367800007,4.88000,-0.03800
,,,-0.00367600005,4.90000,-0.04000
,,,-0.00367400004,4.92000,-0.04000
,,,-0.00367200002,4.92000,-0.04000
,,,-0.00367000001,4.90000,-0.04200
,,,-0.00366799999,4.92000,-0.04200
,,,-0.00366599998,4.90000,-0.04000
,,,-0.00366399996,4.92000,-0.04000
,,,-0.00366199994,4.92000,-0.04000
,,,-0.00365999993,4.92000,-0.04000
,,,-0.00365799991,4.92000,-0.04000
,,,-0.00365599990,4.90000,-0.04000
,,,-0.00365399988,4.92000,-0.03800
,,,-0.00365200010,4.94000,-0.04000
,,,-0.00365000009,4.92000,-0.04000
,,,-0.00364800007,4.88000,-0.04000
,,,-0.00364600006,4.94000,-0.04200
,,,-0.00364400004,4.92000,-0.04000
,,,-0.00364200003,4.92000,-0.04000
,,,-0.00364000001,4.94000,-0.04000
,,,-0.00363799999,4.92000,-0.04000
,,,-0.00363599998,4.92000,-0.04000
,,,-0.00363399996,4.92000,-0.04000
,,,-0.00363199995,4.92000,-0.04200
,,,-0.00362999993,4.92000,-0.04000
,,,-0.00362799992,4.92000,-0.04000
,,,-0.00362599990,4.92000,-0.04000
,,,-0.00362399989,4.88000,-0.04000
,,,-0.00362200011,4.92000,-0.04000
,,,-0.00362000009,4.92000,-0.04000
,,,-0.00361800008,4.92000,-0.04000
,,,-0.00361600006,4.92000,-0.04000
,,,-0.00361400004,4.94000,-0.04200
,,,-0.00361200003,4.92000,-0.04000
,,,-0.00361000001,4.92000,-0.04000
,,,-0.00360800000,4.92000,-0.04000
,,,-0.00360599998,4.92000,-0.03800
,,,-0.00360399997,4.90000,-0.04000
,,,-0.00360199995,4.92000,-0.03800
,,,-0.00359999994,4.92000,-0.04200
,,,-0.00359799992,4.92000,-0.04000
,,,-0.00359599991,4.92000,-0.03800
,,,-0.00359399989,4.92000,-0.04000
,,,-0.00359199988,4.92000,-0.04000
,,,-0.00359000009,4.88000,-0.04000
,,,-0.00358800008,4.92000,-0.04000
,,,-0.00358600006,4.90000,-0.04000
,,,-0.00358400005,4.92000,-0.04000
,,,-0.00358200003,4.92000,-0.04000
,,,-0.00358000002,4.94000,-0.04000
,,,-0.00357800000,4.90000,-0.04000
,,,-0.00357599999,4.90000,-0.04000
,,,-0.00357399997,4.92000,-0.04000
,,,-0.00357199996,4.92000,-0.04000
,,,-0.00356999994,4.94000,-0.04000
,,,-0.00356799993,4.90000,-0.04200
,,,-0.00356599991,4.88000,-0.04000
,,,-0.00356399990,4.92000,-0.04000
,,,-0.00356199988,4.90000,-0.04000
,,,-0.00356000010,4.92000,-0.04000
,,,-0.00355800008,4.92000,-0.04000
,,,-0.00355600007,4.92000,-0.04000
,,,-0.00355400005,4.92000,-0.03800
,,,-0.00355200004,4.92000,-0.04200
,,,-0.00355000002,4.90000,-0.04000
,,,-0.00354800001,4.90000,-0.04000
,,,-0.00354599999,4.90000,-0.04000
,,,-0.00354399998,4.88000,-0.04000
,,,-0.00354199996,4.90000,-0.04000
,,,-0.00353999995,4.92000,-0.04200
,,,-0.00353799993,4.92000,-0.03800
,,,-0.00353599992,4.92000,-0.03800
,,,-0.00353399990,4.94000,-0.04000
,,,-0.00353199989,4.92000,-0.04000
,,,-0.00353000010,4.94000,-0.04200
,,,-0.00352800009,4.92000,-0.04000
,,,-0.00352600007,4.92000,-0.03800
,,,-0.00352400006,4.92000,-0.04000
,,,-0.00352200004,4.92000,-0.04000
,,,-0.00352000003,4.92000,-0.04000
,,,-0.00351800001,4.92000,-0.04000
,,,-0.00351600000,4.92000,-0.04000
,,,-0.00351399998,4.92000,-0.04200
,,,-0.00351199997,4.92000,-0.04000
,,,-0.00350999995,4.92000,-0.03800
,,,-0.00350799994,4.92000,-0.04000
,,,-0.00350599992,4.92000,-0.03800
,,,-0.00350399991,4.92000,-0.04200
,,,-0.00350199989,4.92000,-0.04000
,,,-0.00349999988,4.88000,-0.04000
,,,-0.00349800009,4.92000,-0.04000
,,,-0.00349600008,4.90000,-0.04000
,,,-0.00349400006,4.92000,-0.04000
,,,-0.00349200005,4.92000,-0.04000
,,,-0.00349000003,4.92000,-0.04000
,,,-0.00348800002,4.92000,-0.04000
,,,-0.00348600000,4.92000,-0.04000
,,,-0.00348399999,4.92000,-0.04000
,,,-0.00348199997,4.92000,-0.04000
,,,-0.00347999996,4.90000,-0.04000
,,,-0.00347799994,4.92000,-0.04000
,,,-0.00347599993,4.88000,-0.03800
,,,-0.00347399991,4.92000,-0.04000
,,,-0.00347199989,4.92000,-0.04000
,,,-0.00346999988,4.92000,-0.04000
,,,-0.00346800010,4.92000,-0.04200
,,,-0.00346600008,4.92000,-0.04000
,,,-0.00346400007,4.90000,-0.04000
,,,-0.00346200005,4.92000,-0.04000
,,,-0.00346000004,4.92000,-0.04000
,,,-0.00345800002,4.92000,-0.04000
,,,-0.00345600001,4.94000,-0.04200
,,,-0.00345399999,4.92000,-0.04000
,,,-0.00345199998,4.92000,-0.04200
,,,-0.00344999996,4.92000,-0.04000
,,,-0.00344799994,4.94000,-0.04000
,,,-0.00344599993,4.92000,-0.04000
,,,-0.00344399991,4.92000,-0.04000
,,,-0.00344199990,4.92000,-0.04200
,,,-0.00343999988,4.92000,-0.04000
,,,-0.00343800010,4.92000,-0.04000
,,,-0.00343600009,4.94000,-0.04000
,,,-0.00343400007,4.92000,-0.04200
,,,-0.00343200006,4.88000,-0.04000
,,,-0.00343000004,4.92000,-0.04000
,,,-0.00342800003,4.92000,-0.04000
,,,-0.00342600001,4.92000,-0.04200
,,,-0.00342399999,4.90000,-0.04000
,,,-0.00342199998,4.92000,-0.04000
,,,-0.00341999996,4.92000,-0.04000
,,,-0.00341799995,4.92000,-0.04000
,,,-0.00341599993,4.92000,-0.04200
,,,-0.00341399992,4.92000,-0.04000
,,,-0.00341199990,4.92000,-0.04000
,,,-0.00340999989,4.92000,-0.04400
,,,-0.00340800011,4.92000,-0.03800
,,,-0.00340600009,4.92000,-0.04000
,,,-0.00340400008,4.92000,-0.04000
,,,-0.00340200006,4.90000,-0.03800
,,,-0.00340000005,4.92000,-0.04000
,,,-0.00339800003,4.92000,-0.04200
,,,-0.00339600001,4.92000,-0.04000
,,,-0.00339400000,4.92000,-0.04000
,,,-0.00339199998,4.92000,-0.04000
,,,-0.00338999997,4.92000,-0.04000
,,,-0.00338799995,4.92000,-0.04000
,,,-0.00338599994,4.92000,-0.03800
,,,-0.00338399992,4.94000,-0.04000
,,,-0.00338199991,4.92000,-0.04000
,,,-0.00337999989,4.92000,-0.04000
,,,-0.00337799988,4.92000,-0.04000
,,,-0.00337600010,4.88000,-0.04000
,,,-0.00337400008,4.92000,-0.04000
,,,-0.00337200006,4.92000,-0.04000
,,,-0.00337000005,4.92000,-0.04000
,,,-0.00336800003,4.92000,-0.04200
,,,-0.00336600002,4.92000,-0.04200
,,,-0.00336400000,4.92000,-0.04000
,,,-0.00336199999,4.94000,-0.03800
,,,-0.00335999997,4.90000,-0.04200
,,,-0.00335799996,4.94000,-0.04000
,,,-0.00335599994,4.92000,-0.04000
,,,-0.00335399993,4.94000,-0.04200
,,,-0.00335199991,4.92000,-0.04000
,,,-0.00334999990,4.92000,-0.04200
,,,-0.00334799988,4.92000,-0.04200
,,,-0.00334600010,4.92000,-0.04000
,,,-0.00334400008,4.92000,-0.04000
,,,-0.00334200007,4.92000,-0.04000
,,,-0.00334000005,4.94000,-0.04000
,,,-0.00333800004,4.92000,-0.04000
,,,-0.00333600002,4.92000,-0.04000
,,,-0.00333400001,4.92000,-0.04000
,,,-0.00333199999,4.92000,-0.04200
,,,-0.00332999998,4.92000,-0.04000
,,,-0.00332799996,4.92000,-0.04000
,,,-0.00332599995,4.92000,-0.04000
,,,-0.00332399993,4.92000,-0.04000
,,,-0.00332199992,4.92000,-0.04200
,,,-0.00331999990,4.94000,-0.04000
,,,-0.00331799989,4.92000,-0.04000
,,,-0.00331600010,4.92000,-0.04000
,,,-0.00331400009,4.92000,-0.04000
,,,-0.00331200007,4.92000,-0.04000
,,,-0.00331000006,4.92000,-0.04200
,,,-0.00330800004,4.92000,-0.04000
,,,-0.00330600003,4.92000,-0.04000
,,,-0.00330400001,4.94000,-0.04200
,,,-0.00330200000,4.94000,-0.04000
,,,-0.00329999998,4.92000,-0.04000
,,,-0.00329799997,4.92000,-0.04000
,,,-0.00329599995,4.92000,-0.04000
,,,-0.00329399994,4.92000,-0.04000
,,,-0.00329199992,4.92000,-0.04000
,,,-0.00328999991,4.88000,-0.03800
,,,-0.00328799989,4.92000,-0.04000
,,,-0.00328599988,4.90000,-0.04000
,,,-0.00328400009,4.94000,-0.04000
,,,-0.00328200008,4.92000,-0.04000
,,,-0.00328000006,4.94000,-0.04000
,,,-0.00327800005,4.92000,-0.04000
,,,-0.00327600003,4.92000,-0.04000
,,,-0.00327400002,4.92000,-0.03800
,,,-0.00327200000,4.92000,-0.04000
,,,-0.00326999999,4.92000,-0.04000
,,,-0.00326799997,4.90000,-0.03800
,,,-0.00326599996,4.92000,-0.04000
,,,-0.00326399994,4.92000,-0.04000
,,,-0.00326199993,4.92000,-0.04000
,,,-0.00325999991,4.92000,-0.04000
,,,-0.00325799990,4.94000,-0.04200
,,,-0.00325599988,4.92000,-0.04000
,,,-0.00325400010,4.94000,-0.04000
,,,-0.00325200008,4.92000,-0.04000
,,,-0.00325000007,4.92000,-0.04000
,,,-0.00324800005,4.92000,-0.04000
,,,-0.00324600004,4.92000,-0.03800
,,,-0.00324400002,4.92000,-0.04000
,,,-0.00324200001,4.92000,-0.04000
,,,-0.00323999999,4.90000,-0.04000
,,,-0.00323799998,4.92000,-0.03800
,,,-0.00323599996,4.88000,-0.04000
,,,-0.00323399995,4.92000,-0.04000
,,,-0.00323199993,4.92000,-0.04000
,,,-0.00322999991,4.94000,-0.04200
,,,-0.00322799990,4.94000,-0.04000
,,,-0.00322599988,4.90000,-0.04000
,,,-0.00322400010,4.92000,-0.04000
,,,-0.00322200009,4.92000,-0.03800
,,,-0.00322000007,4.92000,-0.04000
,,,-0.00321800006,4.92000,-0.04000
,,,-0.00321600004,4.92000,-0.04000
,,,-0.00321400003,4.92000,-0.04000
,,,-0.00321200001,4.92000,-0.04000
,,,-0.00321000000,4.88000,-0.03800
,,,-0.00320799998,4.92000,-0.04000
,,,-0.00320599996,4.92000,-0.04200
,,,-0.00320399995,4.94000,-0.04000
,,,-0.00320199993,4.94000,-0.04000
,,,-0.00319999992,4.92000,-0.04000
,,,-0.00319799990,4.92000,-0.04000
,,,-0.00319599989,4.92000,-0.04000
,,,-0.00319400011,4.90000,-0.04200
,,,-0.00319200009,4.92000,-0.04000
,,,-0.00319000008,4.92000,-0.03800
,,,-0.00318800006,4.92000,-0.04200
,,,-0.00318600005,4.92000,-0.04000
,,,-0.00318400003,4.92000,-0.04000
,,,-0.00318200001,4.92000,-0.04200
,,,-0.00318000000,4.92000,-0.04000
,,,-0.00317799998,4.92000,-0.04000
,,,-0.00317599997,4.94000,-0.04000
,,,-0.00317399995,4.92000,-0.04000
,,,-0.00317199994,4.92000,-0.04000
,,,-0.00316999992,4.92000,-0.04000
,,,-0.00316799991,4.88000,-0.04000
,,,-0.00316599989,4.88000,-0.04000
,,,-0.00316399988,4.92000,-0.04200
,,,-0.00316200010,4.94000,-0.04200
,,,-0.00316000008,4.90000,-0.03800
,,,-0.00315800007,4.88000,-0.04000
,,,-0.00315600005,4.92000,-0.04000
,,,-0.00315400003,4.92000,-0.04000
,,,-0.00315200002,4.92000,-0.04000
,,,-0.00315000000,4.92000,-0.04000
,,,-0.00314799999,4.90000,-0.03800
,,,-0.00314599997,4.94000,-0.04000
,,,-0.00314399996,4.92000,-0.04000
,,,-0.00314199994,4.92000,-0.04000
,,,-0.00313999993,4.92000,-0.04000
,,,-0.00313799991,4.92000,-0.04000
,,,-0.00313599990,4.92000,-0.04000
,,,-0.00313399988,4.94000,-0.04000
,,,-0.00313200010,4.90000,-0.04000
,,,-0.00313000008,4.92000,-0.03800
,,,-0.00312800007,4.88000,-0.04000
,,,-0.00312600005,4.92000,-0.04000
,,,-0.00312400004,4.92000,-0.04200
,,,-0.00312200002,4.92000,-0.04000
,,,-0.00312000001,4.88000,-0.04000
,,,-0.00311799999,4.92000,-0.04000
,,,-0.00311599998,4.92000,-0.03800
,,,-0.00311399996,4.92000,-0.04000
,,,-0.00311199995,4.92000,-0.04000
,,,-0.00310999993,4.92000,-0.04000
,,,-0.00310799992,4.92000,-0.04000
,,,-0.00310599990,4.92000,-0.04000
,,,-0.00310399989,4.92000,-0.04000
,,,-0.00310200010,4.92000,-0.04000
,,,-0.00310000009,4.92000,-0.04000
,,,-0.00309800007,4.92000,-0.04000
,,,-0.00309600006,4.92000,-0.04000
,,,-0.00309400004,4.92000,-0.04000
,,,-0.00309200003,4.92000,-0.04200
,,,-0.00309000001,4.92000,-0.04000
,,,-0.00308800000,4.92000,-0.03800
,,,-0.00308599998,4.92000,-0.04000
,,,-0.00308399997,4.92000,-0.04000
,,,-0.00308199995,4.92000,-0.04000
,,,-0.00307999994,4.94000,-0.04000
,,,-0.00307799992,4.94000,-0.04200
,,,-0.00307599991,4.94000,-0.04000
,,,-0.00307399989,4.92000,-0.04000
,,,-0.00307200011,4.92000,-0.04000
,,,-0.00307000009,4.92000,-0.04000
,,,-0.00306800008,4.92000,-0.03800
,,,-0.00306600006,4.92000,-0.04200
,,,-0.00306400005,4.92000,-0.04200
,,,-0.00306200003,4.92000,-0.04000
,,,-0.00306000002,4.92000,-0.04000
,,,-0.00305800000,4.88000,-0.04000
,,,-0.00305599999,4.92000,-0.04000
,,,-0.00305399997,4.94000,-0.03800
,,,-0.00305199996,4.92000,-0.04000
,,,-0.00304999994,4.94000,-0.04200
,,,-0.00304799993,4.94000,-0.04000
,,,-0.00304599991,4.92000,-0.03800
,,,-0.00304399990,4.92000,-0.04000
,,,-0.00304199988,4.92000,-0.04000
,,,-0.00304000010,4.92000,-0.04000
,,,-0.00303800008,4.92000,-0.04000
,,,-0.00303600007,4.94000,-0.04200
,,,-0.00303400005,4.92000,-0.04000
,,,-0.00303200004,4.90000,-0.03800
,,,-0.00303000002,4.92000,-0.04200
,,,-0.00302800001,4.94000,-0.04000
,,,-0.00302599999,4.92000,-0.04000
,,,-0.00302399998,4.92000,-0.04000
,,,-0.00302199996,4.92000,-0.04000
,,,-0.00301999995,4.92000,-0.04000
,,,-0.00301799993,4.92000,-0.03800
,,,-0.00301599992,4.92000,-0.04000
,,,-0.00301399990,4.90000,-0.04000
,,,-0.00301199988,4.90000,-0.04000
,,,-0.00301000010,4.88000,-0.04200
,,,-0.00300800009,4.92000,-0.04000
,,,-0.00300600007,4.92000,-0.03800
,,,-0.00300400006,4.92000,-0.04000
,,,-0.00300200004,4.92000,-0.04000
,,,-0.00300000003,4.92000,-0.04000
,,,-0.00299800001,4.92000,-0.04000
,,,-0.00299600000,4.92000,-0.04000
,,,-0.00299399998,4.92000,-0.04000
,,,-0.00299199997,4.88000,-0.04000
,,,-0.00298999995,4.92000,-0.04000
,,,-0.00298799993,4.92000,-0.04000
,,,-0.00298599992,4.92000,-0.04000
,,,-0.00298399990,4.92000,-0.04000
,,,-0.00298199989,4.90000,-0.04000
,,,-0.00298000011,4.92000,-0.04000
,,,-0.00297800009,4.92000,-0.04000
,,,-0.00297600008,4.92000,-0.04000
,,,-0.00297400006,4.88000,-0.04000
,,,-0.00297200005,4.92000,-0.04000
,,,-0.00297000003,4.92000,-0.04000
,,,-0.00296800002,4.92000,-0.04000
,,,-0.00296600000,4.92000,-0.04200
,,,-0.00296399998,4.92000,-0.04000
,,,-0.00296199997,4.92000,-0.04000
,,,-0.00295999995,4.92000,-0.04000
,,,-0.00295799994,4.92000,-0.03800
,,,-0.00295599992,4.92000,-0.04000
,,,-0.00295399991,4.92000,-0.04000
,,,-0.00295199989,4.92000,-0.04000
,,,-0.00294999988,4.94000,-0.04000
,,,-0.00294800010,4.92000,-0.04200
,,,-0.00294600008,4.94000,-0.04000
,,,-0.00294400007,4.92000,-0.03800
,,,-0.00294200005,4.88000,-0.04000
,,,-0.00294000003,4.92000,-0.04000
,,,-0.00293800002,4.92000,-0.04000
,,,-0.00293600000,4.92000,-0.04000
,,,-0.00293399999,4.92000,-0.04000
,,,-0.00293199997,4.94000,-0.04200
,,,-0.00292999996,4.92000,-0.03800
,,,-0.00292799994,4.92000,-0.04200
,,,-0.00292599993,4.92000,-0.04000
,,,-0.00292399991,4.92000,-0.04000
,,,-0.00292199990,4.88000,-0.04000
,,,-0.00291999988,4.92000,-0.04000
,,,-0.00291800010,4.92000,-0.04000
,,,-0.00291600008,4.92000,-0.04000
,,,-0.00291400007,4.92000,-0.04000
,,,-0.00291200005,4.92000,-0.04000
,,,-0.00291000004,4.92000,-0.03800
,,,-0.00290800002,4.92000,-0.04000
,,,-0.00290600001,4.92000,-0.04200
,,,-0.00290399999,4.92000,-0.04000
,,,-0.00290199998,4.90000,-0.04000
,,,-0.00289999996,4.92000,-0.04000
,,,-0.00289799995,4.92000,-0.04000
,,,-0.00289599993,4.90000,-0.03800
,,,-0.00289399992,4.88000,-0.04000
,,,-0.00289199990,4.94000,-0.04000
,,,-0.00288999989,4.92000,-0.04000
,,,-0.00288800010,4.88000,-0.04000
,,,-0.00288600009,4.94000,-0.04000
,,,-0.00288400007,4.90000,-0.04000
,,,-0.00288200006,4.90000,-0.04000
,,,-0.00288000004,4.90000,-0.04000
,,,-0.00287800003,4.92000,-0.04000
,,,-0.00287600001,4.92000,-0.04000
,,,-0.00287400000,4.92000,-0.04000
,,,-0.00287199998,4.94000,-0.04200
,,,-0.00286999997,4.92000,-0.04000
,,,-0.00286799995,4.88000,-0.04000
,,,-0.00286599994,4.92000,-0.04000
,,,-0.00286399992,4.92000,-0.04000
,,,-0.00286199991,4.90000,-0.04000
,,,-0.00285999989,4.88000,-0.04000
,,,-0.00285800011,4.92000,-0.04000
,,,-0.00285600009,4.92000,-0.04000
,,,-0.00285400008,4.92000,-0.04000
,,,-0.00285200006,4.92000,-0.04000
,,,-0.00285000005,4.92000,-0.04000
,,,-0.00284800003,4.92000,-0.04000
,,,-0.00284600002,4.92000,-0.03800
,,,-0.00284400000,4.90000,-0.04000
,,,-0.00284199999,4.92000,-0.04000
,,,-0.00283999997,4.92000,-0.04000
,,,-0.00283799996,4.92000,-0.04200
,,,-0.00283599994,4.92000,-0.03800
,,,-0.00283399993,4.92000,-0.04000
,,,-0.00283199991,4.92000,-0.04000
,,,-0.00282999990,4.92000,-0.03800
,,,-0.00282799988,4.92000,-0.04000
,,,-0.00282600010,4.94000,-0.04000
,,,-0.00282400008,4.92000,-0.04000
,,,-0.00282200007,4.92000,-0.04000
,,,-0.00282000005,4.94000,-0.04200
,,,-0.00281800004,4.92000,-0.04000
,,,-0.00281600002,4.88000,-0.04000
,,,-0.00281400001,4.92000,-0.04000
,,,-0.00281199999,4.88000,-0.04000
,,,-0.00280999998,4.92000,-0.03200
,,,-0.00280799996,4.92000,-0.03000
,,,-0.00280599995,4.92000,-0.03000
,,,-0.00280399993,4.94000,-0.03200
,,,-0.00280199992,4.94000,-0.03000
,,,-0.00279999990,4.94000,-0.03000
,,,-0.00279799988,4.92000,-0.03000
,,,-0.00279600010,4.92000,-0.03000
,,,-0.00279400009,4.94000,-0.03200
,,,-0.00279200007,4.94000,-0.03000
,,,-0.00279000006,4.94000,-0.03000
,,,-0.00278800004,4.92000,-0.03000
,,,-0.00278600003,4.92000,-0.03000
,,,-0.00278400001,4.94000,-0.03200
,,,-0.00278200000,4.92000,-0.03000
,,,-0.00277999998,4.92000,-0.03000
,,,-0.00277799997,4.94000,-0.03000
,,,-0.00277599995,4.92000,-0.03200
,,,-0.00277399994,4.92000,-0.03000
,,,-0.00277199992,4.94000,-0.03200
,,,-0.00276999990,4.94000,-0.03000
,,,-0.00276799989,4.94000,-0.03200
,,,-0.00276600011,4.92000,-0.03000
,,,-0.00276400009,4.92000,-0.03000
,,,-0.00276200008,4.92000,-0.03000
,,,-0.00276000006,4.92000,-0.03200
,,,-0.00275800005,4.92000,-0.03000
,,,-0.00275600003,4.92000,-0.03200
,,,-0.00275400002,4.92000,-0.03000
,,,-0.00275200000,4.92000,-0.03000
,,,-0.00274999999,4.94000,-0.03200
,,,-0.00274799997,4.92000,-0.03000
,,,-0.00274599995,4.94000,-0.03000
,,,-0.00274399994,4.92000,-0.03000
,,,-0.00274199992,4.92000,-0.03000
,,,-0.00273999991,4.94000,-0.03200
,,,-0.00273799989,4.94000,-0.03000
,,,-0.00273599988,4.92000,-0.03000
,,,-0.00273400010,4.92000,-0.03000
,,,-0.00273200008,4.94000,-0.03000
,,,-0.00273000007,4.92000,-0.03200
,,,-0.00272800005,4.92000,-0.03000
,,,-0.00272600004,4.92000,-0.03000
,,,-0.00272400002,4.92000,-0.03000
,,,-0.00272200000,4.92000,-0.03000
,,,-0.00271999999,4.92000,-0.03000
,,,-0.00271799997,4.94000,-0.03000
,,,-0.00271599996,4.94000,-0.03000
,,,-0.00271399994,4.92000,-0.03000
,,,-0.00271199993,4.92000,-0.03000
,,,-0.00270999991,4.92000,-0.03200
,,,-0.00270799990,4.92000,-0.03000
,,,-0.00270599988,4.94000,-0.03000
,,,-0.00270400010,4.94000,-0.03000
,,,-0.00270200009,4.92000,-0.03000
,,,-0.00270000007,4.92000,-0.03200
,,,-0.00269800005,4.94000,-0.03000
,,,-0.00269600004,4.94000,-0.03200
,,,-0.00269400002,4.94000,-0.03000
,,,-0.00269200001,4.94000,-0.03000
,,,-0.00268999999,4.94000,-0.03200
,,,-0.00268799998,4.92000,-0.03000
,,,-0.00268599996,4.94000,-0.03200
,,,-0.00268399995,4.92000,-0.03000
,,,-0.00268199993,4.92000,-0.03200
,,,-0.00267999992,4.92000,-0.03000
,,,-0.00267799990,4.94000,-0.03000
,,,-0.00267599989,4.92000,-0.03000
,,,-0.00267400010,4.92000,-0.03000
,,,-0.00267200009,4.92000,-0.03200
,,,-0.00267000007,4.94000,-0.03000
,,,-0.00266800006,4.92000,-0.03200
,,,-0.00266600004,4.92000,-0.03000
,,,-0.00266400003,4.94000,-0.03200
,,,-0.00266200001,4.92000,-0.03200
,,,-0.00266000000,4.92000,-0.03000
,,,-0.00265799998,4.92000,-0.03200
,,,-0.00265599997,4.92000,-0.03000
,,,-0.00265399995,4.94000,-0.03000
,,,-0.00265199994,4.92000,-0.02800
,,,-0.00264999992,4.94000,-0.03000
,,,-0.00264799991,4.94000,-0.03000
,,,-0.00264599989,4.94000,-0.03000
,,,-0.00264400011,4.92000,-0.03200
,,,-0.00264200009,4.92000,-0.03000
,,,-0.00264000008,4.94000,-0.03000
,,,-0.00263800006,4.92000,-0.03000
,,,-0.00263600005,4.94000,-0.03000
,,,-0.00263400003,4.92000,-0.03200
,,,-0.00263200002,4.94000,-0.03200
,,,-0.00263000000,4.94000,-0.03000
,,,-0.00262799999,4.94000,-0.03000
,,,-0.00262599997,4.94000,-0.03000
,,,-0.00262399996,4.94000,-0.03000
,,,-0.00262199994,4.92000,-0.03200
,,,-0.00261999993,4.94000,-0.03000
,,,-0.00261799991,4.94000,-0.03000
,,,-0.00261599990,4.92000,-0.03000
,,,-0.00261399988,4.92000,-0.03000
,,,-0.00261200010,4.92000,-0.03200
,,,-0.00261000008,4.94000,-0.03200
,,,-0.00260800007,4.94000,-0.03000
,,,-0.00260600005,4.94000,-0.03000
,,,-0.00260400004,4.92000,-0.03000
,,,-0.00260200002,4.94000,-0.03000
,,,-0.00260000001,4.92000,-0.03000
,,,-0.00259799999,4.92000,-0.03000
,,,-0.00259599998,4.94000,-0.03000
,,,-0.00259399996,4.94000,-0.03000
,,,-0.00259199995,4.92000,-0.03000
,,,-0.00258999993,4.94000,-0.03000
,,,-0.00258799992,4.94000,-0.03000
,,,-0.00258599990,4.94000,-0.03000
,,,-0.00258399989,4.92000,-0.03200
,,,-0.00258200010,4.94000,-0.03000
,,,-0.00258000009,4.94000,-0.03000
,,,-0.00257800007,4.94000,-0.03000
,,,-0.00257600006,4.94000,-0.03000
,,,-0.00257400004,4.92000,-0.03000
,,,-0.00257200003,4.92000,-0.03000
,,,-0.00257000001,4.92000,-0.03000
,,,-0.00256800000,4.92000,-0.03000
,,,-0.00256599998,4.92000,-0.03000
,,,-0.00256399997,4.92000,-0.03000
,,,-0.00256199995,4.92000,-0.03200
,,,-0.00255999994,4.92000,-0.03000
,,,-0.00255799992,4.94000,-0.03000
,,,-0.00255599990,4.92000,-0.03000
,,,-0.00255399989,4.94000,-0.03000
,,,-0.00255200011,4.92000,-0.03000
,,,-0.00255000009,4.92000,-0.03000
,,,-0.00254800008,4.94000,-0.03000
,,,-0.00254600006,4.94000,-0.03000
,,,-0.00254400005,4.94000,-0.03000
,,,-0.00254200003,4.94000,-0.03000
,,,-0.00254000002,4.92000,-0.03200
,,,-0.00253800000,4.94000,-0.03000
,,,-0.00253599999,4.94000,-0.03000
,,,-0.00253399997,4.92000,-0.03000
,,,-0.00253199995,4.92000,-0.03200
,,,-0.00252999994,4.92000,-0.03000
,,,-0.00252799992,4.92000,-0.03000
,,,-0.00252599991,4.94000,-0.03000
,,,-0.00252399989,4.94000,-0.03000
,,,-0.00252199988,4.92000,-0.03000
,,,-0.00252000010,4.92000,-0.03000
,,,-0.00251800008,4.94000,-0.03000
,,,-0.00251600007,4.94000,-0.03000
,,,-0.00251400005,4.92000,-0.02800
,,,-0.00251200004,4.94000,-0.03200
,,,-0.00251000002,4.92000,-0.03000
,,,-0.00250800001,4.94000,-0.03200
,,,-0.00250599999,4.94000,-0.03000
,,,-0.00250399997,4.92000,-0.03000
,,,-0.00250199996,4.94000,-0.03000
,,,-0.00249999994,4.92000,-0.03000
,,,-0.00249799993,4.92000,-0.03000
,,,-0.00249599991,4.92000,-0.03000
,,,-0.00249399990,4.94000,-0.03000
,,,-0.00249199988,4.94000,-0.03000
,,,-0.00249000010,4.92000,-0.03000
,,,-0.00248800009,4.92000,-0.03200
,,,-0.00248600007,4.94000,-0.03200
,,,-0.00248400006,4.92000,-0.03200
,,,-0.00248200004,4.92000,-0.03000
,,,-0.00248000002,4.92000,-0.03000
,,,-0.00247800001,4.92000,-0.03000
,,,-0.00247599999,4.94000,-0.03000
,,,-0.00247399998,4.92000,-0.03000
,,,-0.00247199996,4.94000,-0.02800
,,,-0.00246999995,4.94000,-0.03200
,,,-0.00246799993,4.94000,-0.03000
,,,-0.00246599992,4.94000,-0.03000
,,,-0.00246399990,4.94000,-0.03000
,,,-0.00246199989,4.94000,-0.03000
,,,-0.00246000011,4.94000,-0.03000
,,,-0.00245800009,4.94000,-0.03000
,,,-0.00245600007,4.94000,-0.03000
,,,-0.00245400006,4.92000,-0.03000
,,,-0.00245200004,4.92000,-0.03000
,,,-0.00245000003,4.94000,-0.03000
,,,-0.00244800001,4.94000,-0.03000
,,,-0.00244600000,4.92000,-0.02800
,,,-0.00244399998,4.94000,-0.03000
,,,-0.00244199997,4.94000,-0.03000
,,,-0.00243999995,4.94000,-0.03000
,,,-0.00243799994,4.94000,-0.03200
,,,-0.00243599992,4.94000,-0.02800
,,,-0.00243399991,4.92000,-0.03000
,,,-0.00243199989,4.94000,-0.03000
,,,-0.00243000011,4.94000,-0.03000
,,,-0.00242800009,4.92000,-0.03000
,,,-0.00242600008,4.92000,-0.02800
,,,-0.00242400006,4.94000,-0.03000
,,,-0.00242200005,4.94000,-0.03000
,,,-0.00242000003,4.92000,-0.03000
,,,-0.00241800002,4.94000,-0.03000
,,,-0.00241600000,4.92000,-0.03000
,,,-0.00241399999,4.94000,-0.03000
,,,-0.00241199997,4.94000,-0.03000
,,,-0.00240999996,4.92000,-0.03000
,,,-0.00240799994,4.92000,-0.03000
,,,-0.00240599993,4.90000,-0.03000
,,,-0.00240399991,4.92000,-0.03000
,,,-0.00240199990,4.94000,-0.03200
,,,-0.00239999988,4.94000,-0.03000
,,,-0.00239800010,4.94000,-0.03200
,,,-0.00239600008,4.92000,-0.03000
,,,-0.00239400007,4.94000,-0.03000
,,,-0.00239200005,4.92000,-0.03000
,,,-0.00239000004,4.94000,-0.03000
,,,-0.00238800002,4.92000,-0.03000
,,,-0.00238600001,4.94000,-0.03000
,,,-0.00238399999,4.92000,-0.03000
,,,-0.00238199998,4.94000,-0.03000
,,,-0.00237999996,4.92000,-0.03000
,,,-0.00237799995,4.94000,-0.03000
,,,-0.00237599993,4.94000,-0.03200
,,,-0.00237399992,4.94000,-0.02800
,,,-0.00237199990,4.92000,-0.03000
,,,-0.00236999989,4.92000,-0.02800
,,,-0.00236800010,4.94000,-0.03000
,,,-0.00236600009,4.94000,-0.03200
,,,-0.00236400007,4.94000,-0.02800
,,,-0.00236200006,4.94000,-0.03000
,,,-0.00236000004,4.94000,-0.02800
,,,-0.00235800003,4.94000,-0.03000
,,,-0.00235600001,4.94000,-0.03000
,,,-0.00235400000,4.94000,-0.02800
,,,-0.00235199998,4.94000,-0.03000
,,,-0.00234999997,4.92000,-0.03000
,,,-0.00234799995,4.92000,-0.03000
,,,-0.00234599994,4.94000,-0.03000
,,,-0.00234399992,4.94000,-0.03000
,,,-0.00234199991,4.92000,-0.03000
,,,-0.00233999989,4.94000,-0.03000
,,,-0.00233800011,4.92000,-0.03000
,,,-0.00233600009,4.94000,-0.03000
,,,-0.00233400008,4.92000,-0.03200
,,,-0.00233200006,4.92000,-0.03000
,,,-0.00233000005,4.94000,-0.03000
,,,-0.00232800003,4.92000,-0.03000
,,,-0.00232600002,4.94000,-0.03000
,,,-0.00232400000,4.92000,-0.03000
,,,-0.00232199999,4.94000,-0.03000
,,,-0.00231999997,4.94000,-0.03000
,,,-0.00231799996,4.92000,-0.03000
,,,-0.00231599994,4.94000,-0.03000
,,,-0.00231399992,4.94000,-0.03000
,,,-0.00231199991,4.94000,-0.02800
,,,-0.00230999989,4.92000,-0.03000
,,,-0.00230799988,4.94000,-0.03000
,,,-0.00230600010,4.94000,-0.03000
,,,-0.00230400008,4.92000,-0.02800
,,,-0.00230200007,4.92000,-0.03000
,,,-0.00230000005,4.94000,-0.03000
,,,-0.00229800004,4.92000,-0.03000
,,,-0.00229600002,4.92000,-0.03000
,,,-0.00229400001,4.94000,-0.03000
,,,-0.00229199999,4.94000,-0.03000
,,,-0.00228999997,4.94000,-0.02800
,,,-0.00228799996,4.94000,-0.01800
,,,-0.00228599994,4.94000,-0.01600
,,,-0.00228399993,4.94000,-0.01800
,,,-0.00228199991,4.94000,-0.01800
,,,-0.00227999990,4.94000,-0.01800
,,,-0.00227799988,4.94000,-0.01600
,,,-0.00227600010,4.94000,-0.01600
,,,-0.00227400009,4.94000,-0.01800
,,,-0.00227200007,4.94000,-0.01800
,,,-0.00227000006,4.94000,-0.01600
,,,-0.00226800004,4.94000,-0.01800
,,,-0.00226600002,4.94000,-0.01800
,,,-0.00226400001,4.94000,-0.01800
,,,-0.00226199999,4.94000,-0.01600
,,,-0.00225999998,4.94000,-0.01600
,,,-0.00225799996,4.94000,-0.01800
,,,-0.00225599995,4.94000,-0.01600
,,,-0.00225399993,4.94000,-0.01800
,,,-0.00225199992,4.94000,-0.01800
,,,-0.00224999990,4.94000,-0.01600
,,,-0.00224799989,4.96000,-0.01800
,,,-0.00224600011,4.94000,-0.01800
,,,-0.00224400009,4.94000,-0.01600
,,,-0.00224200008,4.94000,-0.01800
,,,-0.00224000006,4.94000,-0.01600
,,,-0.00223800004,4.94000,-0.01600
,,,-0.00223600003,4.94000,-0.01800
,,,-0.00223400001,4.94000,-0.01600
,,,-0.00223200000,4.94000,-0.01800
,,,-0.00222999998,4.94000,-0.01800
,,,-0.00222799997,4.94000,-0.01600
,,,-0.00222599995,4.94000,-0.01800
,,,-0.00222399994,4.94000,-0.01600
,,,-0.00222199992,4.94000,-0.01800
,,,-0.00221999991,4.94000,-0.01800
,,,-0.00221799989,4.94000,-0.01800
,,,-0.00221600011,4.94000,-0.01600
,,,-0.00221400009,4.94000,-0.01600
,,,-0.00221200008,4.94000,-0.01800
,,,-0.00221000006,4.94000,-0.01800
,,,-0.00220800005,4.94000,-0.01800
,,,-0.00220600003,4.94000,-0.01600
,,,-0.00220400002,4.94000,-0.01800
,,,-0.00220200000,4.94000,-0.01600
,,,-0.00219999999,4.94000,-0.01600
,,,-0.00219799997,4.94000,-0.01800
,,,-0.00219599996,4.92000,-0.01600
,,,-0.00219399994,4.86000,-0.01800
,,,-0.00219199993,4.82000,-0.01400
,,,-0.00218999991,4.80000,-0.01800
,,,-0.00218799990,4.78000,-0.01600
,,,-0.00218599988,4.80000,-0.01800
,,,-0.00218400010,4.80000,-0.01800
,,,-0.00218200008,4.80000,-0.01600
,,,-0.00218000007,4.80000,-0.01800
,,,-0.00217800005,4.80000,-0.01600
,,,-0.00217600004,4.78000,-0.01600
,,,-0.00217400002,4.80000,-0.01800
,,,-0.00217200001,4.80000,-0.01600
,,,-0.00216999999,4.78000,-0.01800
,,,-0.00216799998,4.80000,-0.02000
,,,-0.00216599996,4.80000,-0.01600
,,,-0.00216399995,4.78000,-0.01800
,,,-0.00216199993,4.78000,-0.01800
,,,-0.00215999992,4.80000,-0.01600
,,,-0.00215799990,4.80000,-0.01800
,,,-0.00215599989,4.78000,-0.01600
,,,-0.00215400010,4.80000,-0.01800
,,,-0.00215200009,4.78000,-0.01800
,,,-0.00215000007,4.78000,-0.01600
,,,-0.00214800006,4.80000,-0.01800
,,,-0.00214600004,4.80000,-0.01800
,,,-0.00214400003,4.78000,-0.01800
,,,-0.00214200001,4.78000,-0.01600
,,,-0.00214000000,4.80000,-0.01600
,,,-0.00213799998,4.80000,-0.01800
,,,-0.00213599997,4.80000,-0.01600
,,,-0.00213399995,4.80000,-0.01800
,,,-0.00213199994,4.78000,-0.01600
,,,-0.00212999992,4.80000,-0.01600
,,,-0.00212799991,4.80000,-0.01800
,,,-0.00212599989,4.80000,-0.01800
,,,-0.00212400011,4.80000,-0.01600
,,,-0.00212200009,4.78000,-0.01800
,,,-0.00212000008,4.78000,-0.01600
,,,-0.00211800006,4.78000,-0.01600
,,,-0.00211600005,4.80000,-0.01800
,,,-0.00211400003,4.80000,-0.01600
,,,-0.00211200002,4.80000,-0.01600
,,,-0.00211000000,4.80000,-0.01800
,,,-0.00210799999,4.78000,-0.01800
,,,-0.00210599997,4.78000,-0.01600
,,,-0.00210399996,4.80000,-0.01800
,,,-0.00210199994,4.80000,-0.01600
,,,-0.00209999993,4.78000,-0.01600
,,,-0.00209799991,4.80000,-0.01600
,,,-0.00209599989,4.80000,-0.01800
,,,-0.00209399988,4.80000,-0.01600
,,,-0.00209200010,4.80000,-0.01800
,,,-0.00209000008,4.78000,-0.01800
,,,-0.00208800007,4.80000,-0.01600
,,,-0.00208600005,4.80000,-0.01800
,,,-0.00208400004,4.80000,-0.01800
,,,-0.00208200002,4.80000,-0.01600
,,,-0.00208000001,4.78000,-0.01600
,,,-0.00207799999,4.80000,-0.01800
,,,-0.00207599998,4.80000,-0.01600
,,,-0.00207399996,4.80000,-0.01800
,,,-0.00207199994,4.80000,-0.01800
,,,-0.00206999993,4.80000,-0.01800
,,,-0.00206799991,4.80000,-0.01600
,,,-0.00206599990,4.80000,-0.01800
,,,-0.00206399988,4.78000,-0.01600
,,,-0.00206200010,4.78000,-0.01800
,,,-0.00206000009,4.80000,-0.01600
,,,-0.00205800007,4.78000,-0.01600
,,,-0.00205600006,4.80000,-0.01600
,,,-0.00205400004,4.80000,-0.01800
,,,-0.00205200003,4.78000,-0.01600
,,,-0.00205000001,4.80000,-0.01600
,,,-0.00204799999,4.80000,-0.01800
,,,-0.00204599998,4.80000,-0.01600
,,,-0.00204399996,4.80000,-0.01600
,,,-0.00204199995,4.80000,-0.01800
,,,-0.00203999993,4.80000,-0.01600
,,,-0.00203799992,4.80000,-0.01600
,,,-0.00203599990,4.78000,-0.01600
,,,-0.00203399989,4.80000,-0.01800
,,,-0.00203200011,4.80000,-0.01600
,,,-0.00203000009,4.80000,-0.01800
,,,-0.00202800008,4.80000,-0.01800
,,,-0.00202600006,4.80000,-0.01600
,,,-0.00202400004,4.80000,-0.01600
,,,-0.00202200003,4.80000,-0.01800
,,,-0.00202000001,4.78000,-0.01800
,,,-0.00201800000,4.80000,-0.01600
,,,-0.00201599998,4.80000,-0.01600
,,,-0.00201399997,4.80000,-0.01600
,,,-0.00201199995,4.80000,-0.01600
,,,-0.00200999994,4.80000,-0.01800
,,,-0.00200799992,4.78000,-0.01800
,,,-0.00200599991,4.80000,-0.01600
,,,-0.00200399989,4.80000,-0.01800
,,,-0.00200200011,4.80000,-0.01800
,,,-0.00200000009,4.80000,-0.01600
,,,-0.00199800008,4.80000,-0.01600
,,,-0.00199600006,4.80000,-0.01800
,,,-0.00199400005,4.80000,-0.01600
,,,-0.00199200003,4.78000,-0.01600
,,,-0.00199000002,4.80000,-0.01600
,,,-0.00198800000,4.80000,-0.01800
,,,-0.00198599999,4.80000,-0.01600
,,,-0.00198399997,4.78000,-0.01800
,,,-0.00198199996,4.78000,-0.01800
,,,-0.00197999994,4.80000,-0.01600
,,,-0.00197799993,4.80000,-0.01600
,,,-0.00197599991,4.80000,-0.01800
,,,-0.00197399990,4.80000,-0.01600
,,,-0.00197199988,4.78000,-0.01600
,,,-0.00197000010,4.80000,-0.01800
,,,-0.00196800008,4.80000,-0.01600
,,,-0.00196600007,4.80000,-0.01600
,,,-0.00196400005,4.80000,-0.01600
,,,-0.00196200004,4.80000,-0.01600
,,,-0.00196000002,4.78000,-0.01600
,,,-0.00195800001,4.80000,-0.01600
,,,-0.00195599999,4.78000,-0.01800
,,,-0.00195399998,4.80000,-0.01800
,,,-0.00195199996,4.78000,-0.01600
,,,-0.00194999995,4.80000,-0.01600
,,,-0.00194800005,4.80000,-0.01800
,,,-0.00194600003,4.80000,-0.01600
,,,-0.00194400002,4.78000,-0.01600
,,,-0.00194200000,4.80000,-0.01600
,,,-0.00193999999,4.80000,-0.01800
,,,-0.00193799997,4.78000,-0.01800
,,,-0.00193599996,4.80000,-0.01600
,,,-0.00193399994,4.80000,-0.01600
,,,-0.00193200004,4.80000,-0.01800
,,,-0.00193000003,4.80000,-0.01800
,,,-0.00192800001,4.80000,-0.01600
,,,-0.00192600000,4.80000,-0.01800
,,,-0.00192399998,4.80000,-0.01600
,,,-0.00192199997,4.78000,-0.01800
,,,-0.00191999995,4.80000,-0.01800
,,,-0.00191800005,4.80000,-0.01600
,,,-0.00191600004,4.80000,-0.01600
,,,-0.00191400002,4.80000,-0.01800
,,,-0.00191200001,4.80000,-0.01600
,,,-0.00190999999,4.80000,-0.01600
,,,-0.00190799998,4.80000,-0.01600
,,,-0.00190599996,4.80000,-0.01800
,,,-0.00190399995,4.80000,-0.01800
,,,-0.00190200005,4.80000,-0.01600
,,,-0.00190000003,4.80000,-0.01600
,,,-0.00189800002,4.80000,-0.01800
,,,-0.00189600000,4.80000,-0.01600
,,,-0.00189399999,4.78000,-0.01600
,,,-0.00189199997,4.80000,-0.01800
,,,-0.00188999996,4.80000,-0.01800
,,,-0.00188799994,4.78000,-0.01600
,,,-0.00188600004,4.78000,-0.01600
,,,-0.00188400003,4.78000,-0.01800
,,,-0.00188200001,4.80000,-0.01600
,,,-0.00188000000,4.78000,-0.01800
,,,-0.00187799998,4.80000,-0.01800
,,,-0.00187599997,4.80000,-0.01600
,,,-0.00187399995,4.78000,-0.01800
,,,-0.00187200005,4.80000,-0.01600
,,,-0.00187000004,4.80000,-0.01800
,,,-0.00186800002,4.80000,-0.01600
,,,-0.00186600001,4.80000,-0.01800
,,,-0.00186399999,4.80000,-0.01800
,,,-0.00186199998,4.80000,-0.01600
,,,-0.00185999996,4.80000,-0.01600
,,,-0.00185799995,4.80000,-0.01600
,,,-0.00185600005,4.80000,-0.01600
,,,-0.00185400003,4.80000,-0.01600
,,,-0.00185200002,4.80000,-0.01800
,,,-0.00185000000,4.80000,-0.01600
,,,-0.00184799999,4.80000,-0.00400
,,,-0.00184599997,4.70000,-0.00200
,,,-0.00184399995,4.64000,-0.00400
,,,-0.00184199994,4.64000,-0.00400
,,,-0.00184000004,4.62000,-0.00200
,,,-0.00183800003,4.62000,-0.00400
,,,-0.00183600001,4.62000,-0.00400
,,,-0.00183400000,4.64000,-0.00200
,,,-0.00183199998,4.62000,-0.00400
,,,-0.00182999996,4.64000,-0.00200
,,,-0.00182799995,4.64000,-0.00400
,,,-0.00182600005,4.62000,-0.00400
,,,-0.00182400004,4.62000,-0.00400
,,,-0.00182200002,4.62000,-0.00400
,,,-0.00182000000,4.62000,-0.00400
,,,-0.00181799999,4.62000,-0.00200
,,,-0.00181599997,4.62000,-0.00400
,,,-0.00181399996,4.62000,-0.00400
,,,-0.00181199994,4.62000,-0.00200
,,,-0.00181000005,4.62000,-0.00400
,,,-0.00180800003,4.62000,-0.00400
,,,-0.00180600001,4.62000,-0.00400
,,,-0.00180400000,4.62000,-0.00200
,,,-0.00180199998,4.62000,-0.00200
,,,-0.00179999997,4.64000,-0.00400
,,,-0.00179799995,4.62000,-0.00200
,,,-0.00179599994,4.64000,-0.00400
,,,-0.00179400004,4.62000,-0.00400
,,,-0.00179200002,4.62000,-0.00200
,,,-0.00179000001,4.62000,-0.00400
,,,-0.00178799999,4.64000,-0.00400
,,,-0.00178599998,4.62000,-0.00200
,,,-0.00178399996,4.64000,-0.00200
,,,-0.00178199995,4.62000,-0.00200
,,,-0.00178000005,4.62000,-0.00400
,,,-0.00177800003,4.62000,-0.00200
,,,-0.00177600002,4.62000,-0.00200
,,,-0.00177400000,4.62000,-0.00400
,,,-0.00177199999,4.62000,-0.00400
,,,-0.00176999997,4.64000,-0.00400
,,,-0.00176799996,4.62000,-0.00400
,,,-0.00176599994,4.62000,-0.00400
,,,-0.00176400004,4.62000,-0.00200
,,,-0.00176200003,4.62000,-0.00400
,,,-0.00176000001,4.64000,-0.00400
,,,-0.00175800000,4.62000,-0.00200
,,,-0.00175599998,4.64000,-0.00400
,,,-0.00175399997,4.62000,-0.00400
,,,-0.00175199995,4.64000,-0.00400
,,,-0.00174999994,4.62000,-0.00200
,,,-0.00174800004,4.62000,-0.00400
,,,-0.00174600002,4.62000,-0.00400
,,,-0.00174400001,4.62000,-0.00200
,,,-0.00174199999,4.62000,-0.00200
,,,-0.00173999998,4.64000,-0.00400
,,,-0.00173799996,4.62000,-0.00200
,,,-0.00173599995,4.62000,-0.00400
,,,-0.00173400005,4.62000,-0.00400
,,,-0.00173200003,4.62000,-0.00200
,,,-0.00173000002,4.62000,-0.00200
,,,-0.00172800000,4.62000,-0.00400
,,,-0.00172599999,4.62000,-0.00400
,,,-0.00172399997,4.62000,-0.00200
,,,-0.00172199996,4.62000,-0.00200
,,,-0.00171999994,4.62000,-0.00400
,,,-0.00171800004,4.62000,-0.00400
,,,-0.00171600003,4.62000,-0.00200
,,,-0.00171400001,4.64000,-0.00200
,,,-0.00171200000,4.62000,-0.00400
,,,-0.00170999998,4.62000,-0.00200
,,,-0.00170799997,4.62000,-0.00400
,,,-0.00170599995,4.62000,-0.00400
,,,-0.00170400005,4.62000,-0.00200
,,,-0.00170200004,4.62000,-0.00400
,,,-0.00170000002,4.62000,-0.00400
,,,-0.00169800001,4.64000,-0.00200
,,,-0.00169599999,4.62000,-0.00200
,,,-0.00169399998,4.64000,-0.00200
,,,-0.00169199996,4.62000,-0.00400
,,,-0.00168999995,4.62000,-0.00200
,,,-0.00168800005,4.64000,-0.00400
,,,-0.00168600003,4.64000,-0.00400
,,,-0.00168400002,4.62000,-0.00200
,,,-0.00168200000,4.62000,-0.00400
,,,-0.00167999999,4.62000,-0.00200
,,,-0.00167799997,4.64000,-0.00400
,,,-0.00167599996,4.62000,-0.00400
,,,-0.00167399994,4.64000,-0.00200
,,,-0.00167200004,4.62000,-0.00600
,,,-0.00167000003,4.62000,-0.00400
,,,-0.00166800001,4.64000,-0.00200
,,,-0.00166600000,4.62000,-0.00400
,,,-0.00166399998,4.62000,-0.00400
,,,-0.00166199997,4.64000,-0.00200
,,,-0.00165999995,4.62000,-0.00200
,,,-0.00165800005,4.62000,-0.00400
,,,-0.00165600004,4.64000,-0.00400
,,,-0.00165400002,4.62000,-0.00200
,,,-0.00165200001,4.62000,-0.00400
,,,-0.00164999999,4.62000,-0.00400
,,,-0.00164799998,4.62000,-0.00200
,,,-0.00164599996,4.62000,-0.00400
,,,-0.00164399995,4.64000,-0.00400
,,,-0.00164200005,4.62000,-0.00200
,,,-0.00164000003,4.62000,-0.00200
,,,-0.00163800002,4.64000,-0.00400
,,,-0.00163600000,4.62000,-0.00400
,,,-0.00163399999,4.62000,-0.00200
,,,-0.00163199997,4.62000,-0.00400
,,,-0.00162999996,4.62000,-0.00400
,,,-0.00162799994,4.62000,-0.00200
,,,-0.00162600004,4.62000,-0.00400
,,,-0.00162400003,4.62000,-0.00200
,,,-0.00162200001,4.64000,-0.00400
,,,-0.00162000000,4.64000,-0.00200
,,,-0.00161799998,4.62000,-0.00400
,,,-0.00161599996,4.62000,-0.00400
,,,-0.00161399995,4.62000,-0.00200
,,,-0.00161200005,4.64000,-0.00400
,,,-0.00161000004,4.62000,-0.00200
,,,-0.00160800002,4.62000,-0.00200
,,,-0.00160600001,4.64000,-0.00400
,,,-0.00160399999,4.62000,-0.00200
,,,-0.00160199997,4.62000,-0.00400
,,,-0.00159999996,4.62000,-0.00200
,,,-0.00159799994,4.64000,-0.00400
,,,-0.00159600005,4.62000,-0.00200
,,,-0.00159400003,4.64000,-0.00200
,,,-0.00159200002,4.62000,-0.00400
,,,-0.00159000000,4.62000,-0.00200
,,,-0.00158799998,4.64000,-0.00200
,,,-0.00158599997,4.64000,-0.00400
,,,-0.00158399995,4.62000,-0.00200
,,,-0.00158199994,4.62000,-0.00400
,,,-0.00158000004,4.62000,-0.00400
,,,-0.00157800002,4.62000,-0.00400
,,,-0.00157600001,4.62000,-0.00400
,,,-0.00157399999,4.64000,-0.00200
,,,-0.00157199998,4.62000,-0.00400
,,,-0.00156999996,4.62000,-0.00200
,,,-0.00156799995,4.64000,-0.00200
,,,-0.00156600005,4.62000,-0.00400
,,,-0.00156400003,4.64000,-0.00400
,,,-0.00156200002,4.62000,-0.00600
,,,-0.00156000000,4.62000,-0.00200
,,,-0.00155799999,4.62000,-0.00200
,,,-0.00155599997,4.62000,-0.00400
,,,-0.00155399996,4.64000,-0.00400
,,,-0.00155199994,4.64000,-0.00400
,,,-0.00155000004,4.64000,-0.00400
,,,-0.00154800003,4.62000,-0.00400
,,,-0.00154600001,4.62000,-0.00400
,,,-0.00154400000,4.62000,-0.00400
,,,-0.00154199998,4.62000,-0.00200
,,,-0.00153999997,4.62000,-0.00400
,,,-0.00153799995,4.62000,-0.00400
,,,-0.00153600005,4.62000,-0.00200
,,,-0.00153400004,4.62000,-0.00200
,,,-0.00153200002,4.64000,-0.00200
,,,-0.00153000001,4.64000,-0.00200
,,,-0.00152799999,4.62000,-0.00200
,,,-0.00152599998,4.62000,-0.00200
,,,-0.00152399996,4.62000,-0.00400
,,,-0.00152199995,4.62000,-0.00200
,,,-0.00152000005,4.64000,-0.00200
,,,-0.00151800003,4.62000,-0.00200
,,,-0.00151600002,4.62000,-0.00200
,,,-0.00151400000,4.62000,-0.00200
,,,-0.00151199999,4.64000,-0.00400
,,,-0.00150999997,4.62000,-0.00400
,,,-0.00150799996,4.62000,-0.00400
,,,-0.00150599994,4.62000,-0.00400
,,,-0.00150400004,4.62000,-0.00400
,,,-0.00150200003,4.64000,-0.00200
,,,-0.00150000001,4.64000,-0.00400
,,,-0.00149800000,4.62000,-0.00200
,,,-0.00149599998,4.62000,-0.00200
,,,-0.00149399997,4.62000,-0.00400
,,,-0.00149199995,4.64000,-0.00200
,,,-0.00149000005,4.64000,-0.00200
,,,-0.00148800004,4.62000,-0.00400
,,,-0.00148600002,4.62000,-0.00200
,,,-0.00148400001,4.64000,-0.00200
,,,-0.00148199999,4.62000,-0.00200
,,,-0.00147999998,4.62000,-0.00200
,,,-0.00147799996,4.64000,-0.00400
,,,-0.00147599995,4.62000,-0.00400
,,,-0.00147400005,4.62000,-0.00400
,,,-0.00147200003,4.64000,-0.00200
,,,-0.00147000002,4.62000,-0.00200
,,,-0.00146800000,4.62000,-0.00200
,,,-0.00146599999,4.62000,-0.00200
,,,-0.00146399997,4.62000,-0.00400
,,,-0.00146199996,4.62000,-0.00200
,,,-0.00145999994,4.64000,-0.00200
,,,-0.00145800004,4.64000,-0.00400
,,,-0.00145600003,4.64000,-0.00200
,,,-0.00145400001,4.62000,-0.00200
,,,-0.00145200000,4.62000,-0.00400
,,,-0.00144999998,4.62000,-0.00200
,,,-0.00144799997,4.64000,-0.00200
,,,-0.00144599995,4.62000,-0.00400
,,,-0.00144400005,4.62000,-0.00400
,,,-0.00144200004,4.62000,-0.00400
,,,-0.00144000002,4.62000,-0.00200
,,,-0.00143800001,4.62000,-0.00200
,,,-0.00143599999,4.58000,0.00800
,,,-0.00143399998,4.50000,0.00800
,,,-0.00143199996,4.46000,0.01000
,,,-0.00142999995,4.44000,0.00800
,,,-0.00142800005,4.44000,0.01000
,,,-0.00142600003,4.44000,0.00800
,,,-0.00142400002,4.44000,0.00800
,,,-0.00142200000,4.44000,0.01000
,,,-0.00141999999,4.44000,0.00800
,,,-0.00141799997,4.44000,0.00800
,,,-0.00141599996,4.44000,0.01000
,,,-0.00141399994,4.44000,0.00800
,,,-0.00141200004,4.44000,0.01000
,,,-0.00141000003,4.44000,0.00800
,,,-0.00140800001,4.44000,0.01200
,,,-0.00140600000,4.44000,0.00800
,,,-0.00140399998,4.44000,0.01000
,,,-0.00140199997,4.44000,0.00800
,,,-0.00139999995,4.44000,0.00800
,,,-0.00139800005,4.44000,0.00800
,,,-0.00139600004,4.44000,0.00800
,,,-0.00139400002,4.44000,0.01000
,,,-0.00139200001,4.44000,0.01000
,,,-0.00138999999,4.46000,0.00800
,,,-0.00138799998,4.44000,0.00800
,,,-0.00138599996,4.44000,0.00800
,,,-0.00138399994,4.44000,0.00800
,,,-0.00138200005,4.44000,0.01200
,,,-0.00138000003,4.44000,0.00800
,,,-0.00137800002,4.44000,0.01000
,,,-0.00137600000,4.44000,0.01000
,,,-0.00137399998,4.44000,0.00800
,,,-0.00137199997,4.44000,0.01200
,,,-0.00136999995,4.44000,0.01000
,,,-0.00136799994,4.44000,0.00800
,,,-0.00136600004,4.44000,0.01000
,,,-0.00136400003,4.46000,0.00800
,,,-0.00136200001,4.44000,0.00800
,,,-0.00135999999,4.44000,0.01000
,,,-0.00135799998,4.44000,0.01000
,,,-0.00135599996,4.44000,0.01000
,,,-0.00135399995,4.44000,0.01200
,,,-0.00135200005,4.44000,0.00800
,,,-0.00135000004,4.44000,0.01000
,,,-0.00134800002,4.44000,0.01000
,,,-0.00134600000,4.44000,0.00800
,,,-0.00134399999,4.44000,0.01000
,,,-0.00134199997,4.44000,0.00800
,,,-0.00133999996,4.44000,0.01000
,,,-0.00133799994,4.44000,0.01200
,,,-0.00133600004,4.44000,0.00800
,,,-0.00133400003,4.44000,0.01000
,,,-0.00133200001,4.44000,0.00800
,,,-0.00133000000,4.44000,0.01200
,,,-0.00132799998,4.44000,0.01000
,,,-0.00132599997,4.44000,0.00800
,,,-0.00132399995,4.44000,0.01000
,,,-0.00132200005,4.46000,0.00800
,,,-0.00132000004,4.44000,0.00800
,,,-0.00131800002,4.44000,0.01000
,,,-0.00131600001,4.44000,0.00800
,,,-0.00131399999,4.44000,0.01200
,,,-0.00131199998,4.44000,0.00800
,,,-0.00130999996,4.44000,0.01000
,,,-0.00130799995,4.44000,0.01200
,,,-0.00130600005,4.46000,0.00800
,,,-0.00130400003,4.44000,0.01000
,,,-0.00130200002,4.44000,0.01000
,,,-0.00130000000,4.44000,0.00800
,,,-0.00129799999,4.44000,0.01000
,,,-0.00129599997,4.46000,0.00800
,,,-0.00129399996,4.46000,0.01000
,,,-0.00129199994,4.46000,0.01000
,,,-0.00129000004,4.46000,0.01000
,,,-0.00128800003,4.44000,0.01000
,,,-0.00128600001,4.46000,0.00800
,,,-0.00128400000,4.46000,0.01000
,,,-0.00128199998,4.44000,0.01000
,,,-0.00127999997,4.44000,0.01000
,,,-0.00127799995,4.44000,0.01000
,,,-0.00127600005,4.44000,0.00800
,,,-0.00127400004,4.44000,0.01000
,,,-0.00127200002,4.44000,0.00800
,,,-0.00127000001,4.44000,0.01000
,,,-0.00126799999,4.44000,0.01000
,,,-0.00126599998,4.44000,0.00800
,,,-0.00126399996,4.44000,0.00800
,,,-0.00126199995,4.46000,0.00800
,,,-0.00126000005,4.46000,0.00800
,,,-0.00125800003,4.44000,0.01200
,,,-0.00125600002,4.44000,0.01000
,,,-0.00125400000,4.44000,0.01000
,,,-0.00125199999,4.46000,0.00800
,,,-0.00124999997,4.44000,0.01000
,,,-0.00124799996,4.44000,0.01000
,,,-0.00124599994,4.44000,0.01000
,,,-0.00124400004,4.44000,0.01200
,,,-0.00124200003,4.44000,0.01000
,,,-0.00124000001,4.44000,0.00800
,,,-0.00123800000,4.44000,0.01000
,,,-0.00123599998,4.44000,0.01000
,,,-0.00123399997,4.44000,0.01000
,,,-0.00123199995,4.44000,0.01000
,,,-0.00123000005,4.44000,0.01000
,,,-0.00122800004,4.44000,0.01000
,,,-0.00122600002,4.44000,0.00800
,,,-0.00122400001,4.46000,0.01000
,,,-0.00122199999,4.44000,0.00800
,,,-0.00121999998,4.46000,0.01000
,,,-0.00121799996,4.46000,0.01000
,,,-0.00121599995,4.44000,0.00800
,,,-0.00121400005,4.44000,0.00800
,,,-0.00121200003,4.44000,0.01000
,,,-0.00121000002,4.44000,0.01000
,,,-0.00120800000,4.44000,0.01000
,,,-0.00120599999,4.44000,0.01000
,,,-0.00120399997,4.44000,0.01000
,,,-0.00120199996,4.44000,0.01000
,,,-0.00119999994,4.44000,0.01000
,,,-0.00119800004,4.44000,0.01000
,,,-0.00119600003,4.44000,0.01000
,,,-0.00119400001,4.44000,0.00800
,,,-0.00119200000,4.44000,0.01200
,,,-0.00118999998,4.44000,0.01000
,,,-0.00118799997,4.46000,0.01000
,,,-0.00118599995,4.44000,0.01000
,,,-0.00118400005,4.44000,0.00800
,,,-0.00118200004,4.44000,0.01200
,,,-0.00118000002,4.44000,0.01000
,,,-0.00117800001,4.44000,0.01200
,,,-0.00117599999,4.46000,0.00800
,,,-0.00117399998,4.44000,0.01200
,,,-0.00117199996,4.44000,0.01000
,,,-0.00116999994,4.46000,0.00800
,,,-0.00116800005,4.44000,0.00800
,,,-0.00116600003,4.44000,0.00800
,,,-0.00116400002,4.44000,0.00800
,,,-0.00116200000,4.44000,0.01000
,,,-0.00115999999,4.46000,0.01000
,,,-0.00115799997,4.44000,0.00800
,,,-0.00115599995,4.46000,0.00800
,,,-0.00115399994,4.44000,0.01200
,,,-0.00115200004,4.44000,0.01000
,,,-0.00115000003,4.46000,0.01000
,,,-0.00114800001,4.44000,0.01000
,,,-0.00114600000,4.44000,0.00800
,,,-0.00114399998,4.44000,0.01000
,,,-0.00114199996,4.44000,0.01200
,,,-0.00113999995,4.44000,0.01000
,,,-0.00113800005,4.44000,0.01000
,,,-0.00113600004,4.46000,0.01000
,,,-0.00113400002,4.44000,0.00800
,,,-0.00113200000,4.44000,0.01000
,,,-0.00112999999,4.44000,0.00800
,,,-0.00112799997,4.44000,0.01000
,,,-0.00112599996,4.44000,0.01000
,,,-0.00112399994,4.44000,0.01000
,,,-0.00112200005,4.44000,0.00800
,,,-0.00112000003,4.44000,0.01000
,,,-0.00111800001,4.46000,0.00800
,,,-0.00111600000,4.46000,0.01000
,,,-0.00111399998,4.46000,0.00800
,,,-0.00111199997,4.44000,0.01000
,,,-0.00110999995,4.44000,0.01000
