Record Length,10000,,Source,CH1,CH2
Sample Interval,CH1:0.0000080000000 CH2:0.0000080000000,,Second,Volt,Volt
Vertical Units,CH1:V CH2:V,,-0.03999999911,5.12000,4.92000
Vertical Scale,CH1:1.00 CH2:1.00,,-0.03999200091,5.12000,4.92000
Vertical Offset,CH1:-3.00000 CH2:-2.98000,,-0.03998399898,5.12000,4.92000
Horizontal Units,s,,-0.03997600079,5.12000,4.92000
Horizontal Scale,0.0049999999,,-0.03996799886,5.12000,4.92000
Model Number,SDS1072CML+,,-0.03996000066,5.12000,4.92000
Serial Number,SDS10BA3163350,,-0.03995199874,5.12000,4.92000
Software Version,6.01.01.16,,-0.03994400054,5.12000,4.92000
,,,-0.03993599862,5.12000,4.92000
,,,-0.03992800042,5.12000,4.92000
,,,-0.03991999850,5.12000,4.92000
,,,-0.03991200030,5.12000,4.92000
,,,-0.03990399837,5.12000,4.92000
,,,-0.03989600018,5.12000,4.92000
,,,-0.03988799825,5.12000,4.92000
,,,-0.03988000005,5.12000,4.92000
,,,-0.03987199813,5.12000,4.92000
,,,-0.03986399993,5.12000,4.92000
,,,-0.03985600173,5.12000,4.92000
,,,-0.03984799981,5.12000,4.92000
,,,-0.03984000161,5.12000,4.92000
,,,-0.03983199969,5.12000,4.92000
,,,-0.03982400149,5.12000,4.92000
,,,-0.03981599957,5.12000,4.92000
,,,-0.03980800137,5.12000,4.92000
,,,-0.03979999945,5.12000,4.92000
,,,-0.03979200125,5.12000,4.92000
,,,-0.03978399932,5.16000,4.92000
,,,-0.03977600113,5.16000,4.92000
,,,-0.03976799920,5.12000,4.92000
,,,-0.03976000100,5.12000,4.92000
,,,-0.03975199908,5.12000,4.92000
,,,-0.03974400088,5.12000,4.92000
,,,-0.03973599896,5.12000,4.92000
,,,-0.03972800076,5.12000,4.92000
,,,-0.03971999884,5.12000,4.92000
,,,-0.03971200064,5.12000,4.92000
,,,-0.03970399871,5.12000,4.92000
,,,-0.03969600052,5.12000,4.92000
,,,-0.03968799859,5.12000,4.92000
,,,-0.03968000039,5.12000,4.92000
,,,-0.03967199847,5.12000,4.92000
,,,-0.03966400027,5.12000,4.92000
,,,-0.03965599835,5.12000,4.92000
,,,-0.03964800015,5.12000,4.92000
,,,-0.03963999823,5.12000,4.92000
,,,-0.03963200003,5.16000,4.92000
,,,-0.03962399811,5.16000,4.92000
,,,-0.03961599991,5.16000,4.92000
,,,-0.03960800171,5.16000,4.92000
,,,-0.03959999979,5.16000,4.92000
,,,-0.03959200159,5.16000,4.92000
,,,-0.03958399966,5.16000,4.92000
,,,-0.03957600147,5.16000,4.92000
,,,-0.03956799954,5.16000,4.92000
,,,-0.03956000134,5.16000,4.92000
,,,-0.03955199942,5.16000,4.92000
,,,-0.03954400122,5.16000,4.92000
,,,-0.03953599930,5.16000,4.92000
,,,-0.03952800110,5.16000,4.92000
,,,-0.03951999918,5.16000,4.92000
,,,-0.03951200098,5.16000,4.92000
,,,-0.03950399905,5.16000,4.92000
,,,-0.03949600086,5.16000,4.92000
,,,-0.03948799893,5.16000,4.92000
,,,-0.03948000073,5.12000,4.92000
,,,-0.03947199881,5.12000,4.92000
,,,-0.03946400061,5.12000,4.92000
,,,-0.03945599869,5.12000,4.92000
,,,-0.03944800049,5.12000,4.92000
,,,-0.03943999857,5.12000,4.92000
,,,-0.03943200037,5.12000,4.92000
,,,-0.03942399845,5.16000,4.92000
,,,-0.03941600025,5.16000,4.92000
,,,-0.03940799832,5.16000,4.92000
,,,-0.03940000013,5.16000,4.92000
,,,-0.03939199820,5.16000,4.92000
,,,-0.03938400000,5.16000,4.92000
,,,-0.03937599808,5.16000,4.92000
,,,-0.03936799988,5.16000,4.92000
,,,-0.03936000168,5.12000,4.92000
,,,-0.03935199976,5.12000,4.92000
,,,-0.03934400156,5.12000,4.92000
,,,-0.03933599964,5.12000,4.92000
,,,-0.03932800144,5.12000,4.92000
,,,-0.03931999952,5.12000,4.92000
,,,-0.03931200132,5.12000,4.92000
,,,-0.03930399939,5.12000,4.92000
,,,-0.03929600120,5.12000,4.92000
,,,-0.03928799927,5.12000,4.92000
,,,-0.03928000107,5.12000,4.92000
,,,-0.03927199915,5.12000,4.92000
,,,-0.03926400095,5.12000,4.92000
,,,-0.03925599903,5.12000,4.92000
,,,-0.03924800083,5.12000,4.92000
,,,-0.03923999891,5.12000,4.92000
,,,-0.03923200071,5.12000,4.92000
,,,-0.03922399879,5.12000,4.92000
,,,-0.03921600059,5.12000,4.92000
,,,-0.03920799866,5.12000,4.92000
,,,-0.03920000046,5.12000,4.92000
,,,-0.03919199854,5.12000,4.92000
,,,-0.03918400034,5.12000,4.92000
,,,-0.03917599842,5.12000,4.92000
,,,-0.03916800022,5.12000,4.92000
,,,-0.03915999830,5.12000,4.92000
,,,-0.03915200010,5.12000,4.92000
,,,-0.03914399818,5.12000,4.92000
,,,-0.03913599998,5.12000,4.92000
,,,-0.03912799805,5.12000,4.92000
,,,-0.03911999986,5.12000,4.92000
,,,-0.03911200166,5.12000,4.92000
,,,-0.03910399973,5.12000,4.92000
,,,-0.03909600154,5.12000,4.92000
,,,-0.03908799961,5.12000,4.92000
,,,-0.03908000141,5.12000,4.92000
,,,-0.03907199949,5.12000,4.92000
,,,-0.03906400129,5.12000,4.92000
,,,-0.03905599937,5.12000,4.92000
,,,-0.03904800117,5.12000,4.92000
,,,-0.03903999925,5.12000,4.92000
,,,-0.03903200105,5.12000,4.92000
,,,-0.03902399912,5.12000,4.92000
,,,-0.03901600093,5.12000,4.92000
,,,-0.03900799900,5.12000,4.92000
,,,-0.03900000080,5.12000,4.92000
,,,-0.03899199888,5.12000,4.92000
,,,-0.03898400068,5.12000,4.92000
,,,-0.03897599876,5.12000,4.92000
,,,-0.03896800056,5.12000,4.92000
,,,-0.03895999864,5.12000,4.92000
,,,-0.03895200044,5.12000,4.92000
,,,-0.03894399852,5.12000,4.92000
,,,-0.03893600032,5.12000,4.92000
,,,-0.03892799839,5.12000,4.92000
,,,-0.03892000020,5.12000,4.92000
,,,-0.03891199827,5.12000,4.92000
,,,-0.03890400007,5.12000,4.92000
,,,-0.03889599815,5.12000,4.92000
,,,-0.03888799995,5.12000,4.92000
,,,-0.03888000175,5.12000,4.92000
,,,-0.03887199983,5.12000,4.92000
,,,-0.03886400163,5.12000,4.96000
,,,-0.03885599971,5.12000,4.92000
,,,-0.03884800151,5.12000,4.92000
,,,-0.03883999959,5.12000,4.92000
,,,-0.03883200139,5.12000,4.92000
,,,-0.03882399946,5.12000,4.92000
,,,-0.03881600127,5.12000,4.92000
,,,-0.03880799934,5.12000,4.92000
,,,-0.03880000114,5.12000,4.92000
,,,-0.03879199922,5.12000,4.92000
,,,-0.03878400102,5.12000,4.92000
,,,-0.03877599910,5.12000,4.92000
,,,-0.03876800090,5.12000,4.92000
,,,-0.03875999898,5.12000,4.92000
,,,-0.03875200078,5.12000,4.92000
,,,-0.03874399886,5.12000,4.92000
,,,-0.03873600066,5.12000,4.92000
,,,-0.03872799873,5.12000,4.92000
,,,-0.03872000054,5.12000,4.92000
,,,-0.03871199861,5.12000,4.92000
,,,-0.03870400041,5.12000,4.92000
,,,-0.03869599849,5.12000,4.92000
,,,-0.03868800029,5.12000,4.92000
,,,-0.03867999837,5.12000,4.92000
,,,-0.03867200017,5.12000,4.92000
,,,-0.03866399825,5.12000,4.92000
,,,-0.03865600005,5.12000,4.92000
,,,-0.03864799812,5.16000,4.92000
,,,-0.03863999993,5.16000,4.92000
,,,-0.03863200173,5.16000,4.92000
,,,-0.03862399980,5.16000,4.92000
,,,-0.03861600161,5.16000,4.92000
,,,-0.03860799968,5.16000,4.92000
,,,-0.03860000148,5.16000,4.92000
,,,-0.03859199956,5.16000,4.92000
,,,-0.03858400136,5.16000,4.92000
,,,-0.03857599944,5.12000,4.92000
,,,-0.03856800124,5.12000,4.92000
,,,-0.03855999932,5.12000,4.92000
,,,-0.03855200112,5.12000,4.92000
,,,-0.03854399920,5.12000,4.92000
,,,-0.03853600100,5.12000,4.92000
,,,-0.03852799907,5.12000,4.92000
,,,-0.03852000087,5.12000,4.92000
,,,-0.03851199895,5.12000,4.92000
,,,-0.03850400075,5.12000,4.92000
,,,-0.03849599883,5.12000,4.92000
,,,-0.03848800063,5.12000,4.92000
,,,-0.03847999871,5.12000,4.92000
,,,-0.03847200051,5.12000,4.92000
,,,-0.03846399859,5.12000,4.92000
,,,-0.03845600039,5.12000,4.92000
,,,-0.03844799846,5.12000,4.92000
,,,-0.03844000027,5.12000,4.92000
,,,-0.03843199834,5.12000,4.92000
,,,-0.03842400014,5.12000,4.92000
,,,-0.03841599822,5.12000,4.92000
,,,-0.03840800002,5.12000,4.92000
,,,-0.03839999810,5.12000,4.92000
,,,-0.03839199990,5.12000,4.92000
,,,-0.03838400170,5.12000,4.96000
,,,-0.03837599978,5.12000,4.96000
,,,-0.03836800158,5.12000,4.96000
,,,-0.03835999966,5.12000,4.96000
,,,-0.03835200146,5.12000,4.96000
,,,-0.03834399953,5.12000,4.96000
,,,-0.03833600134,5.12000,4.96000
,,,-0.03832799941,5.12000,4.96000
,,,-0.03832000121,5.12000,4.96000
,,,-0.03831199929,5.12000,4.96000
,,,-0.03830400109,5.12000,4.96000
,,,-0.03829599917,5.12000,4.96000
,,,-0.03828800097,5.12000,4.92000
,,,-0.03827999905,5.12000,4.92000
,,,-0.03827200085,5.12000,4.92000
,,,-0.03826399893,5.12000,4.92000
,,,-0.03825600073,5.12000,4.92000
,,,-0.03824799880,5.12000,4.92000
,,,-0.03824000061,5.12000,4.92000
,,,-0.03823199868,5.12000,4.92000
,,,-0.03822400048,5.12000,4.92000
,,,-0.03821599856,5.12000,4.96000
,,,-0.03820800036,5.12000,4.96000
,,,-0.03819999844,5.12000,4.96000
,,,-0.03819200024,5.12000,4.92000
,,,-0.03818399832,5.12000,4.92000
,,,-0.03817600012,5.12000,4.92000
,,,-0.03816799819,5.12000,4.92000
,,,-0.03816000000,5.12000,4.92000
,,,-0.03815199807,5.12000,4.92000
,,,-0.03814399987,5.12000,4.92000
,,,-0.03813600168,5.16000,4.92000
,,,-0.03812799975,5.16000,4.92000
,,,-0.03812000155,5.16000,4.92000
,,,-0.03811199963,5.16000,4.92000
,,,-0.03810400143,5.16000,4.92000
,,,-0.03809599951,5.16000,4.92000
,,,-0.03808800131,5.16000,4.92000
,,,-0.03807999939,5.12000,4.96000
,,,-0.03807200119,5.12000,4.96000
,,,-0.03806399927,5.12000,4.96000
,,,-0.03805600107,5.12000,4.96000
,,,-0.03804799914,5.12000,4.96000
,,,-0.03804000095,5.12000,4.96000
,,,-0.03803199902,5.12000,4.96000
,,,-0.03802400082,5.12000,4.96000
,,,-0.03801599890,5.12000,4.96000
,,,-0.03800800070,5.12000,4.96000
,,,-0.03799999878,5.12000,4.92000
,,,-0.03799200058,5.12000,4.96000
,,,-0.03798399866,5.12000,4.96000
,,,-0.03797600046,5.12000,4.96000
,,,-0.03796799853,5.16000,4.96000
,,,-0.03796000034,5.16000,4.96000
,,,-0.03795199841,5.16000,4.96000
,,,-0.03794400021,5.12000,4.96000
,,,-0.03793599829,5.12000,4.96000
,,,-0.03792800009,5.12000,4.96000
,,,-0.03791999817,5.12000,4.96000
,,,-0.03791199997,5.12000,4.96000
,,,-0.03790399805,5.12000,4.96000
,,,-0.03789599985,5.12000,4.96000
,,,-0.03788800165,5.12000,4.92000
,,,-0.03787999973,5.16000,4.92000
,,,-0.03787200153,5.16000,4.92000
,,,-0.03786399961,5.16000,4.92000
,,,-0.03785600141,5.16000,4.92000
,,,-0.03784799948,5.16000,4.92000
,,,-0.03784000129,5.16000,4.92000
,,,-0.03783199936,5.16000,4.92000
,,,-0.03782400116,5.16000,4.92000
,,,-0.03781599924,5.12000,4.92000
,,,-0.03780800104,5.12000,4.92000
,,,-0.03779999912,5.12000,4.92000
,,,-0.03779200092,5.12000,4.92000
,,,-0.03778399900,5.12000,4.92000
,,,-0.03777600080,5.12000,4.92000
,,,-0.03776799887,5.12000,4.92000
,,,-0.03776000068,5.12000,4.92000
,,,-0.03775199875,5.12000,4.92000
,,,-0.03774400055,5.16000,4.92000
,,,-0.03773599863,5.16000,4.92000
,,,-0.03772800043,5.16000,4.92000
,,,-0.03771999851,5.12000,4.92000
,,,-0.03771200031,5.12000,4.96000
,,,-0.03770399839,5.12000,4.96000
,,,-0.03769600019,5.12000,4.96000
,,,-0.03768799827,5.12000,4.96000
,,,-0.03768000007,5.12000,4.96000
,,,-0.03767199814,5.12000,4.96000
,,,-0.03766399994,5.12000,4.96000
,,,-0.03765600175,5.12000,4.96000
,,,-0.03764799982,5.12000,4.96000
,,,-0.03764000162,5.12000,4.96000
,,,-0.03763199970,5.12000,4.96000
,,,-0.03762400150,5.12000,4.96000
,,,-0.03761599958,5.12000,4.96000
,,,-0.03760800138,5.12000,4.96000
,,,-0.03759999946,5.12000,4.96000
,,,-0.03759200126,5.12000,4.96000
,,,-0.03758399934,5.12000,4.96000
,,,-0.03757600114,5.12000,4.96000
,,,-0.03756799921,5.12000,4.96000
,,,-0.03756000102,5.12000,4.96000
,,,-0.03755199909,5.12000,4.96000
,,,-0.03754400089,5.12000,4.96000
,,,-0.03753599897,5.12000,4.96000
,,,-0.03752800077,5.12000,4.96000
,,,-0.03751999885,5.12000,4.96000
,,,-0.03751200065,5.12000,4.96000
,,,-0.03750399873,5.12000,4.96000
,,,-0.03749600053,5.12000,4.96000
,,,-0.03748799860,5.12000,4.96000
,,,-0.03748000041,5.16000,4.96000
,,,-0.03747199848,5.16000,4.96000
,,,-0.03746400028,5.16000,4.96000
,,,-0.03745599836,5.16000,4.96000
,,,-0.03744800016,5.16000,4.96000
,,,-0.03743999824,5.16000,4.96000
,,,-0.03743200004,5.16000,4.96000
,,,-0.03742399812,5.16000,4.96000
,,,-0.03741599992,5.16000,4.96000
,,,-0.03740800172,5.12000,4.96000
,,,-0.03739999980,5.12000,4.96000
,,,-0.03739200160,5.12000,4.96000
,,,-0.03738399968,5.12000,4.96000
,,,-0.03737600148,5.12000,4.96000
,,,-0.03736799955,5.12000,4.96000
,,,-0.03736000136,5.12000,4.96000
,,,-0.03735199943,5.12000,4.96000
,,,-0.03734400123,5.12000,4.96000
,,,-0.03733599931,5.12000,4.96000
,,,-0.03732800111,5.12000,4.96000
,,,-0.03731999919,5.12000,4.96000
,,,-0.03731200099,5.12000,4.96000
,,,-0.03730399907,5.12000,4.96000
,,,-0.03729600087,5.12000,4.96000
,,,-0.03728799894,5.12000,4.96000
,,,-0.03728000075,5.12000,4.96000
,,,-0.03727199882,5.12000,4.96000
,,,-0.03726400062,5.12000,4.96000
,,,-0.03725599870,5.12000,4.96000
,,,-0.03724800050,5.12000,4.96000
,,,-0.03723999858,5.12000,4.96000
,,,-0.03723200038,5.12000,4.96000
,,,-0.03722399846,5.12000,4.96000
,,,-0.03721600026,5.12000,4.96000
,,,-0.03720799834,5.12000,4.96000
,,,-0.03720000014,5.12000,4.96000
,,,-0.03719199821,5.12000,4.96000
,,,-0.03718400002,5.12000,4.96000
,,,-0.03717599809,5.12000,4.96000
,,,-0.03716799989,5.12000,4.96000
,,,-0.03716000170,5.12000,4.96000
,,,-0.03715199977,5.12000,4.96000
,,,-0.03714400157,5.12000,4.96000
,,,-0.03713599965,5.12000,4.96000
,,,-0.03712800145,5.12000,4.96000
,,,-0.03711999953,5.12000,4.96000
,,,-0.03711200133,5.12000,4.96000
,,,-0.03710399941,5.12000,4.96000
,,,-0.03709600121,5.12000,4.96000
,,,-0.03708799928,5.12000,4.96000
,,,-0.03708000109,5.12000,4.96000
,,,-0.03707199916,5.12000,5.00000
,,,-0.03706400096,5.12000,5.00000
,,,-0.03705599904,5.12000,5.00000
,,,-0.03704800084,5.12000,5.00000
,,,-0.03703999892,5.12000,5.00000
,,,-0.03703200072,5.12000,5.00000
,,,-0.03702399880,5.12000,4.96000
,,,-0.03701600060,5.12000,4.96000
,,,-0.03700799868,5.12000,4.96000
,,,-0.03700000048,5.12000,4.96000
,,,-0.03699199855,5.12000,4.96000
,,,-0.03698400036,5.12000,4.96000
,,,-0.03697599843,5.12000,4.96000
,,,-0.03696800023,5.12000,4.96000
,,,-0.03695999831,5.12000,5.00000
,,,-0.03695200011,5.12000,5.00000
,,,-0.03694399819,5.12000,5.00000
,,,-0.03693599999,5.12000,5.00000
,,,-0.03692799807,5.12000,5.00000
,,,-0.03691999987,5.12000,5.00000
,,,-0.03691200167,5.12000,5.00000
,,,-0.03690399975,5.12000,5.00000
,,,-0.03689600155,5.12000,5.00000
,,,-0.03688799962,5.12000,4.96000
,,,-0.03688000143,5.12000,4.96000
,,,-0.03687199950,5.12000,4.96000
,,,-0.03686400130,5.12000,4.96000
,,,-0.03685599938,5.12000,4.96000
,,,-0.03684800118,5.12000,4.96000
,,,-0.03683999926,5.12000,4.96000
,,,-0.03683200106,5.12000,4.96000
,,,-0.03682399914,5.12000,4.96000
,,,-0.03681600094,5.12000,4.96000
,,,-0.03680799901,5.12000,4.96000
,,,-0.03680000082,5.12000,4.96000
,,,-0.03679199889,5.12000,4.96000
,,,-0.03678400069,5.12000,4.96000
,,,-0.03677599877,5.12000,4.96000
,,,-0.03676800057,5.12000,4.96000
,,,-0.03675999865,5.12000,4.96000
,,,-0.03675200045,5.12000,4.96000
,,,-0.03674399853,5.12000,4.96000
,,,-0.03673600033,5.12000,4.96000
,,,-0.03672799841,5.12000,4.96000
,,,-0.03672000021,5.12000,4.96000
,,,-0.03671199828,5.12000,5.00000
,,,-0.03670400009,5.12000,5.00000
,,,-0.03669599816,5.12000,5.00000
,,,-0.03668799996,5.12000,4.96000
,,,-0.03668000177,5.12000,4.96000
,,,-0.03667199984,5.12000,4.96000
,,,-0.03666400164,5.12000,4.96000
,,,-0.03665599972,5.12000,4.96000
,,,-0.03664800152,5.12000,4.96000
,,,-0.03663999960,5.12000,4.96000
,,,-0.03663200140,5.12000,4.96000
,,,-0.03662399948,5.12000,5.00000
,,,-0.03661600128,5.12000,5.00000
,,,-0.03660799935,5.12000,5.00000
,,,-0.03660000116,5.12000,5.00000
,,,-0.03659199923,5.12000,4.96000
,,,-0.03658400103,5.12000,4.96000
,,,-0.03657599911,5.12000,4.96000
,,,-0.03656800091,5.12000,4.96000
,,,-0.03655999899,5.12000,4.96000
,,,-0.03655200079,5.16000,4.96000
,,,-0.03654399887,5.16000,4.96000
,,,-0.03653600067,5.16000,4.96000
,,,-0.03652799875,5.16000,5.00000
,,,-0.03652000055,5.16000,5.00000
,,,-0.03651199862,5.16000,5.00000
,,,-0.03650400043,5.16000,5.00000
,,,-0.03649599850,5.16000,5.00000
,,,-0.03648800030,5.12000,5.00000
,,,-0.03647999838,5.12000,5.00000
,,,-0.03647200018,5.12000,4.96000
,,,-0.03646399826,5.12000,4.96000
,,,-0.03645600006,5.12000,4.96000
,,,-0.03644799814,5.12000,4.96000
,,,-0.03643999994,5.12000,4.96000
,,,-0.03643200174,5.12000,4.96000
,,,-0.03642399982,5.12000,4.96000
,,,-0.03641600162,5.12000,4.96000
,,,-0.03640799969,5.12000,4.96000
,,,-0.03640000150,5.12000,4.96000
,,,-0.03639199957,5.16000,4.96000
,,,-0.03638400137,5.16000,4.96000
,,,-0.03637599945,5.12000,4.96000
,,,-0.03636800125,5.12000,4.96000
,,,-0.03635999933,5.12000,4.96000
,,,-0.03635200113,5.12000,4.96000
,,,-0.03634399921,5.12000,4.96000
,,,-0.03633600101,5.12000,4.96000
,,,-0.03632799909,5.12000,4.96000
,,,-0.03632000089,5.12000,4.96000
,,,-0.03631199896,5.12000,4.96000
,,,-0.03630400077,5.12000,5.00000
,,,-0.03629599884,5.12000,5.00000
,,,-0.03628800064,5.12000,5.00000
,,,-0.03627999872,5.12000,5.00000
,,,-0.03627200052,5.12000,5.00000
,,,-0.03626399860,5.12000,5.00000
,,,-0.03625600040,5.12000,5.00000
,,,-0.03624799848,5.12000,5.00000
,,,-0.03624000028,5.12000,5.00000
,,,-0.03623199835,5.12000,5.00000
,,,-0.03622400016,5.12000,5.00000
,,,-0.03621599823,5.16000,5.00000
,,,-0.03620800003,5.16000,5.00000
,,,-0.03619999811,5.16000,4.96000
,,,-0.03619199991,5.16000,4.96000
,,,-0.03618400171,5.16000,4.96000
,,,-0.03617599979,5.16000,4.96000
,,,-0.03616800159,5.16000,4.96000
,,,-0.03615999967,5.12000,4.96000
,,,-0.03615200147,5.12000,5.00000
,,,-0.03614399955,5.12000,5.00000
,,,-0.03613600135,5.12000,5.00000
,,,-0.03612799942,5.12000,5.00000
,,,-0.03612000123,5.12000,5.00000
,,,-0.03611199930,5.12000,5.00000
,,,-0.03610400110,5.12000,5.00000
,,,-0.03609599918,5.12000,5.00000
,,,-0.03608800098,5.12000,5.00000
,,,-0.03607999906,5.12000,5.00000
,,,-0.03607200086,5.12000,5.00000
,,,-0.03606399894,5.12000,5.00000
,,,-0.03605600074,5.12000,5.00000
,,,-0.03604799882,5.12000,5.00000
,,,-0.03604000062,5.12000,5.00000
,,,-0.03603199869,5.12000,5.00000
,,,-0.03602400050,5.12000,5.00000
,,,-0.03601599857,5.12000,5.00000
,,,-0.03600800037,5.12000,5.00000
,,,-0.03599999845,5.12000,5.00000
,,,-0.03599200025,5.12000,5.00000
,,,-0.03598399833,5.12000,5.00000
,,,-0.03597600013,5.12000,5.00000
,,,-0.03596799821,5.12000,4.96000
,,,-0.03596000001,5.12000,4.96000
,,,-0.03595199808,5.12000,4.96000
,,,-0.03594399989,5.12000,4.96000
,,,-0.03593600169,5.12000,4.96000
,,,-0.03592799976,5.12000,5.00000
,,,-0.03592000157,5.12000,5.00000
,,,-0.03591199964,5.12000,5.00000
,,,-0.03590400144,5.12000,5.00000
,,,-0.03589599952,5.12000,5.00000
,,,-0.03588800132,5.12000,5.00000
,,,-0.03587999940,5.12000,5.00000
,,,-0.03587200120,5.12000,5.00000
,,,-0.03586399928,5.12000,5.00000
,,,-0.03585600108,5.12000,5.00000
,,,-0.03584799916,5.12000,5.00000
,,,-0.03584000096,5.12000,5.00000
,,,-0.03583199903,5.12000,5.00000
,,,-0.03582400084,5.12000,5.00000
,,,-0.03581599891,5.12000,5.00000
,,,-0.03580800071,5.12000,5.00000
,,,-0.03579999879,5.12000,5.00000
,,,-0.03579200059,5.12000,5.00000
,,,-0.03578399867,5.12000,5.00000
,,,-0.03577600047,5.12000,5.00000
,,,-0.03576799855,5.12000,5.00000
,,,-0.03576000035,5.12000,5.00000
,,,-0.03575199842,5.12000,5.00000
,,,-0.03574400023,5.12000,5.00000
,,,-0.03573599830,5.12000,5.00000
,,,-0.03572800010,5.12000,5.00000
,,,-0.03571999818,5.12000,5.00000
,,,-0.03571199998,5.12000,5.00000
,,,-0.03570399806,5.12000,5.00000
,,,-0.03569599986,5.12000,5.00000
,,,-0.03568800166,5.12000,5.00000
,,,-0.03567999974,5.12000,5.00000
,,,-0.03567200154,5.12000,5.00000
,,,-0.03566399962,5.12000,5.00000
,,,-0.03565600142,5.12000,5.00000
,,,-0.03564799950,5.12000,5.00000
,,,-0.03564000130,5.12000,5.00000
,,,-0.03563199937,5.12000,5.00000
,,,-0.03562400118,5.12000,5.00000
,,,-0.03561599925,5.16000,5.00000
,,,-0.03560800105,5.16000,5.00000
,,,-0.03559999913,5.16000,5.00000
,,,-0.03559200093,5.16000,5.00000
,,,-0.03558399901,5.16000,5.00000
,,,-0.03557600081,5.16000,5.00000
,,,-0.03556799889,5.16000,5.00000
,,,-0.03556000069,5.16000,5.00000
,,,-0.03555199876,5.16000,5.00000
,,,-0.03554400057,5.16000,5.00000
,,,-0.03553599864,5.16000,5.00000
,,,-0.03552800044,5.16000,5.00000
,,,-0.03551999852,5.16000,5.00000
,,,-0.03551200032,5.16000,5.00000
,,,-0.03550399840,5.12000,5.00000
,,,-0.03549600020,5.12000,5.00000
,,,-0.03548799828,5.12000,5.00000
,,,-0.03548000008,5.12000,5.00000
,,,-0.03547199816,5.16000,5.00000
,,,-0.03546399996,5.16000,5.00000
,,,-0.03545600176,5.16000,5.00000
,,,-0.03544799984,5.16000,5.00000
,,,-0.03544000164,5.16000,5.00000
,,,-0.03543199971,5.16000,5.00000
,,,-0.03542400151,5.16000,5.00000
,,,-0.03541599959,5.12000,5.00000
,,,-0.03540800139,5.12000,5.00000
,,,-0.03539999947,5.12000,5.00000
,,,-0.03539200127,5.12000,5.00000
,,,-0.03538399935,5.12000,5.00000
,,,-0.03537600115,5.12000,5.00000
,,,-0.03536799923,5.12000,5.00000
,,,-0.03536000103,5.12000,5.00000
,,,-0.03535199910,5.16000,5.00000
,,,-0.03534400091,5.16000,5.00000
,,,-0.03533599898,5.12000,5.00000
,,,-0.03532800078,5.12000,5.00000
,,,-0.03531999886,5.12000,5.00000
,,,-0.03531200066,5.12000,5.00000
,,,-0.03530399874,5.12000,5.00000
,,,-0.03529600054,5.12000,5.00000
,,,-0.03528799862,5.12000,5.00000
,,,-0.03528000042,5.12000,5.00000
,,,-0.03527199849,5.12000,5.00000
,,,-0.03526400030,5.12000,5.00000
,,,-0.03525599837,5.12000,5.00000
,,,-0.03524800017,5.12000,5.00000
,,,-0.03523999825,5.12000,5.00000
,,,-0.03523200005,5.12000,5.00000
,,,-0.03522399813,5.12000,5.00000
,,,-0.03521599993,5.12000,5.00000
,,,-0.03520800173,5.12000,5.00000
,,,-0.03519999981,5.12000,5.00000
,,,-0.03519200161,5.12000,5.00000
,,,-0.03518399969,5.12000,5.00000
,,,-0.03517600149,5.12000,5.00000
,,,-0.03516799957,5.12000,5.00000
,,,-0.03516000137,5.12000,5.00000
,,,-0.03515199944,5.12000,5.00000
,,,-0.03514400125,5.12000,5.00000
,,,-0.03513599932,5.12000,5.00000
,,,-0.03512800112,5.12000,5.00000
,,,-0.03511999920,5.12000,5.00000
,,,-0.03511200100,5.12000,5.00000
,,,-0.03510399908,5.12000,5.00000
,,,-0.03509600088,5.12000,5.00000
,,,-0.03508799896,5.12000,5.00000
,,,-0.03508000076,5.12000,5.00000
,,,-0.03507199883,5.12000,5.00000
,,,-0.03506400064,5.12000,5.00000
,,,-0.03505599871,5.12000,5.00000
,,,-0.03504800051,5.12000,5.00000
,,,-0.03503999859,5.12000,5.00000
,,,-0.03503200039,5.12000,5.00000
,,,-0.03502399847,5.12000,5.00000
,,,-0.03501600027,5.12000,5.00000
,,,-0.03500799835,5.12000,5.00000
,,,-0.03500000015,5.12000,5.00000
,,,-0.03499199823,5.12000,5.00000
,,,-0.03498400003,5.12000,5.00000
,,,-0.03497599810,5.12000,5.00000
,,,-0.03496799991,5.12000,5.00000
,,,-0.03496000171,5.12000,5.00000
,,,-0.03495199978,5.12000,5.00000
,,,-0.03494400159,5.12000,5.00000
,,,-0.03493599966,5.12000,5.00000
,,,-0.03492800146,5.12000,5.00000
,,,-0.03491999954,5.12000,5.00000
,,,-0.03491200134,5.12000,5.00000
,,,-0.03490399942,5.12000,5.00000
,,,-0.03489600122,5.12000,5.00000
,,,-0.03488799930,5.12000,5.00000
,,,-0.03488000110,5.12000,5.00000
,,,-0.03487199917,5.12000,5.00000
,,,-0.03486400098,5.12000,5.00000
,,,-0.03485599905,5.12000,5.00000
,,,-0.03484800085,5.16000,5.00000
,,,-0.03483999893,5.12000,5.00000
,,,-0.03483200073,5.12000,5.00000
,,,-0.03482399881,5.12000,5.00000
,,,-0.03481600061,5.12000,5.00000
,,,-0.03480799869,5.12000,5.00000
,,,-0.03480000049,5.12000,5.00000
,,,-0.03479199857,5.12000,5.00000
,,,-0.03478400037,5.12000,5.00000
,,,-0.03477599844,5.12000,5.00000
,,,-0.03476800025,5.12000,5.00000
,,,-0.03475999832,5.12000,5.00000
,,,-0.03475200012,5.12000,5.00000
,,,-0.03474399820,5.12000,5.00000
,,,-0.03473600000,5.12000,5.00000
,,,-0.03472799808,5.12000,5.00000
,,,-0.03471999988,5.12000,5.00000
,,,-0.03471200168,5.12000,5.00000
,,,-0.03470399976,5.12000,5.00000
,,,-0.03469600156,5.12000,5.00000
,,,-0.03468799964,5.12000,5.00000
,,,-0.03468000144,5.12000,5.00000
,,,-0.03467199951,5.12000,5.00000
,,,-0.03466400132,5.12000,5.00000
,,,-0.03465599939,5.12000,5.00000
,,,-0.03464800119,5.12000,5.00000
,,,-0.03463999927,5.12000,5.00000
,,,-0.03463200107,5.12000,5.00000
,,,-0.03462399915,5.12000,5.00000
,,,-0.03461600095,5.12000,5.00000
,,,-0.03460799903,5.12000,5.00000
,,,-0.03460000083,5.12000,5.00000
,,,-0.03459199890,5.12000,5.00000
,,,-0.03458400071,5.12000,5.00000
,,,-0.03457599878,5.12000,5.00000
,,,-0.03456800058,5.12000,5.00000
,,,-0.03455999866,5.12000,5.00000
,,,-0.03455200046,5.12000,5.00000
,,,-0.03454399854,5.12000,5.00000
,,,-0.03453600034,5.12000,5.00000
,,,-0.03452799842,5.12000,5.00000
,,,-0.03452000022,5.12000,5.00000
,,,-0.03451199830,5.12000,5.00000
,,,-0.03450400010,5.12000,5.00000
,,,-0.03449599817,5.12000,5.00000
,,,-0.03448799998,5.12000,5.00000
,,,-0.03447999805,5.12000,5.00000
,,,-0.03447199985,5.12000,5.00000
,,,-0.03446400166,5.12000,5.00000
,,,-0.03445599973,5.12000,5.00000
,,,-0.03444800153,5.12000,5.00000
,,,-0.03443999961,5.12000,5.00000
,,,-0.03443200141,5.12000,5.00000
,,,-0.03442399949,5.12000,5.00000
,,,-0.03441600129,5.12000,5.00000
,,,-0.03440799937,5.12000,5.00000
,,,-0.03440000117,5.16000,5.00000
,,,-0.03439199924,5.16000,5.00000
,,,-0.03438400105,5.16000,5.00000
,,,-0.03437599912,5.16000,5.00000
,,,-0.03436800092,5.16000,5.00000
,,,-0.03435999900,5.16000,5.00000
,,,-0.03435200080,5.12000,5.00000
,,,-0.03434399888,5.12000,5.00000
,,,-0.03433600068,5.12000,5.00000
,,,-0.03432799876,5.12000,5.00000
,,,-0.03432000056,5.12000,5.00000
,,,-0.03431199864,5.12000,5.00000
,,,-0.03430400044,5.12000,5.00000
,,,-0.03429599851,5.12000,5.00000
,,,-0.03428800032,5.12000,5.00000
,,,-0.03427999839,5.12000,5.00000
,,,-0.03427200019,5.12000,5.00000
,,,-0.03426399827,5.12000,5.00000
,,,-0.03425600007,5.12000,5.00000
,,,-0.03424799815,5.12000,5.00000
,,,-0.03423999995,5.12000,5.00000
,,,-0.03423200175,5.12000,5.00000
,,,-0.03422399983,5.12000,5.00000
,,,-0.03421600163,5.12000,5.00000
,,,-0.03420799971,5.12000,5.00000
,,,-0.03420000151,5.12000,5.00000
,,,-0.03419199958,5.12000,5.00000
,,,-0.03418400139,5.12000,5.00000
,,,-0.03417599946,5.12000,5.00000
,,,-0.03416800126,5.12000,5.00000
,,,-0.03415999934,5.12000,5.00000
,,,-0.03415200114,5.12000,5.00000
,,,-0.03414399922,5.12000,5.00000
,,,-0.03413600102,5.12000,5.00000
,,,-0.03412799910,5.12000,5.00000
,,,-0.03412000090,5.12000,5.00000
,,,-0.03411199898,5.12000,5.00000
,,,-0.03410400078,5.12000,5.00000
,,,-0.03409599885,5.12000,5.00000
,,,-0.03408800066,5.12000,5.00000
,,,-0.03407999873,5.12000,5.00000
,,,-0.03407200053,5.12000,5.00000
,,,-0.03406399861,5.12000,5.00000
,,,-0.03405600041,5.12000,5.00000
,,,-0.03404799849,5.12000,5.00000
,,,-0.03404000029,5.12000,5.00000
,,,-0.03403199837,5.12000,5.00000
,,,-0.03402400017,5.12000,5.00000
,,,-0.03401599824,5.12000,5.00000
,,,-0.03400800005,5.12000,5.00000
,,,-0.03399999812,5.12000,5.00000
,,,-0.03399199992,5.12000,5.00000
,,,-0.03398400173,5.12000,5.00000
,,,-0.03397599980,5.12000,5.00000
,,,-0.03396800160,5.12000,5.00000
,,,-0.03395999968,5.16000,5.00000
,,,-0.03395200148,5.16000,5.00000
,,,-0.03394399956,5.16000,5.00000
,,,-0.03393600136,5.16000,5.00000
,,,-0.03392799944,5.16000,5.00000
,,,-0.03392000124,5.16000,5.00000
,,,-0.03391199932,5.12000,5.00000
,,,-0.03390400112,5.12000,5.00000
,,,-0.03389599919,5.12000,5.00000
,,,-0.03388800099,5.12000,5.00000
,,,-0.03387999907,5.12000,5.00000
,,,-0.03387200087,5.12000,5.00000
,,,-0.03386399895,5.12000,5.00000
,,,-0.03385600075,5.12000,5.00000
,,,-0.03384799883,5.12000,5.00000
,,,-0.03384000063,5.12000,5.00000
,,,-0.03383199871,5.12000,5.00000
,,,-0.03382400051,5.12000,5.00000
,,,-0.03381599858,5.12000,5.00000
,,,-0.03380800039,5.12000,5.00000
,,,-0.03379999846,5.12000,5.00000
,,,-0.03379200026,5.12000,5.00000
,,,-0.03378399834,5.16000,5.00000
,,,-0.03377600014,5.16000,5.00000
,,,-0.03376799822,5.16000,5.00000
,,,-0.03376000002,5.16000,5.00000
,,,-0.03375199810,5.16000,5.00000
,,,-0.03374399990,5.16000,5.00000
,,,-0.03373600170,5.12000,5.00000
,,,-0.03372799978,5.12000,5.00000
,,,-0.03372000158,5.12000,5.00000
,,,-0.03371199965,5.12000,5.00000
,,,-0.03370400146,5.12000,5.00000
,,,-0.03369599953,5.12000,5.00000
,,,-0.03368800133,5.12000,5.00000
,,,-0.03367999941,5.12000,5.00000
,,,-0.03367200121,5.12000,5.00000
,,,-0.03366399929,5.12000,5.00000
,,,-0.03365600109,5.12000,5.00000
,,,-0.03364799917,5.16000,5.00000
,,,-0.03364000097,5.16000,5.00000
,,,-0.03363199905,5.12000,5.00000
,,,-0.03362400085,5.12000,5.00000
,,,-0.03361599892,5.12000,5.00000
,,,-0.03360800073,5.12000,5.00000
,,,-0.03359999880,5.12000,5.00000
,,,-0.03359200060,5.12000,5.00000
,,,-0.03358399868,5.12000,5.00000
,,,-0.03357600048,5.12000,5.00000
,,,-0.03356799856,5.12000,5.00000
,,,-0.03356000036,5.12000,5.00000
,,,-0.03355199844,5.12000,5.00000
,,,-0.03354400024,5.16000,5.00000
,,,-0.03353599831,5.16000,5.00000
,,,-0.03352800012,5.12000,5.00000
,,,-0.03351999819,5.12000,5.00000
,,,-0.03351199999,5.12000,5.00000
,,,-0.03350399807,5.12000,5.00000
,,,-0.03349599987,5.12000,5.00000
,,,-0.03348800167,5.12000,4.96000
,,,-0.03347999975,5.12000,4.96000
,,,-0.03347200155,5.12000,4.96000
,,,-0.03346399963,5.12000,4.96000
,,,-0.03345600143,5.12000,4.96000
,,,-0.03344799951,5.12000,5.00000
,,,-0.03344000131,5.12000,5.00000
,,,-0.03343199939,5.12000,5.00000
,,,-0.03342400119,5.16000,5.00000
,,,-0.03341599926,5.16000,5.00000
,,,-0.03340800107,5.16000,5.00000
,,,-0.03339999914,5.16000,5.00000
,,,-0.03339200094,5.16000,5.00000
,,,-0.03338399902,5.16000,5.00000
,,,-0.03337600082,5.16000,5.00000
,,,-0.03336799890,5.12000,5.00000
,,,-0.03336000070,5.12000,5.00000
,,,-0.03335199878,5.12000,5.00000
,,,-0.03334400058,5.12000,5.00000
,,,-0.03333599865,5.12000,5.00000
,,,-0.03332800046,5.12000,5.00000
,,,-0.03331999853,5.12000,5.00000
,,,-0.03331200033,5.12000,5.00000
,,,-0.03330399841,5.12000,5.00000
,,,-0.03329600021,5.12000,5.00000
,,,-0.03328799829,5.12000,5.00000
,,,-0.03328000009,5.12000,5.00000
,,,-0.03327199817,5.12000,5.00000
,,,-0.03326399997,5.12000,5.00000
,,,-0.03325600177,5.12000,5.00000
,,,-0.03324799985,5.16000,5.00000
,,,-0.03324000165,5.16000,5.00000
,,,-0.03323199973,5.16000,5.00000
,,,-0.03322400153,5.16000,5.00000
,,,-0.03321599960,5.16000,5.00000
,,,-0.03320800141,5.16000,5.00000
,,,-0.03319999948,5.12000,5.00000
,,,-0.03319200128,5.12000,5.00000
,,,-0.03318399936,5.12000,5.00000
,,,-0.03317600116,5.12000,5.00000
,,,-0.03316799924,5.12000,5.00000
,,,-0.03316000104,5.12000,5.00000
,,,-0.03315199912,5.12000,5.00000
,,,-0.03314400092,5.12000,5.00000
,,,-0.03313599899,5.12000,4.96000
,,,-0.03312800080,5.12000,4.96000
,,,-0.03311999887,5.12000,4.96000
,,,-0.03311200067,5.12000,4.96000
,,,-0.03310399875,5.12000,4.96000
,,,-0.03309600055,5.12000,4.96000
,,,-0.03308799863,5.12000,4.96000
,,,-0.03308000043,5.12000,4.96000
,,,-0.03307199851,5.12000,5.00000
,,,-0.03306400031,5.12000,5.00000
,,,-0.03305599838,5.12000,5.00000
,,,-0.03304800019,5.12000,5.00000
,,,-0.03303999826,5.16000,5.00000
,,,-0.03303200006,5.16000,5.00000
,,,-0.03302399814,5.16000,5.00000
,,,-0.03301599994,5.12000,5.00000
,,,-0.03300800174,5.12000,5.00000
,,,-0.03299999982,5.12000,5.00000
,,,-0.03299200162,5.12000,5.00000
,,,-0.03298399970,5.12000,5.00000
,,,-0.03297600150,5.12000,5.00000
,,,-0.03296799958,5.12000,5.00000
,,,-0.03296000138,5.12000,5.00000
,,,-0.03295199946,5.12000,4.96000
,,,-0.03294400126,5.12000,4.96000
,,,-0.03293599933,5.16000,4.96000
,,,-0.03292800114,5.16000,4.96000
,,,-0.03291999921,5.16000,5.00000
,,,-0.03291200101,5.16000,5.00000
,,,-0.03290399909,5.16000,5.00000
,,,-0.03289600089,5.16000,5.00000
,,,-0.03288799897,5.16000,5.00000
,,,-0.03288000077,5.16000,4.96000
,,,-0.03287199885,5.16000,4.96000
,,,-0.03286400065,5.16000,4.96000
,,,-0.03285599872,5.16000,4.96000
,,,-0.03284800053,5.16000,4.96000
,,,-0.03283999860,5.12000,5.00000
,,,-0.03283200040,5.12000,5.00000
,,,-0.03282399848,5.12000,5.00000
,,,-0.03281600028,5.12000,5.00000
,,,-0.03280799836,5.12000,5.00000
,,,-0.03280000016,5.12000,5.00000
,,,-0.03279199824,5.12000,5.00000
,,,-0.03278400004,5.12000,5.00000
,,,-0.03277599812,5.12000,5.00000
,,,-0.03276799992,5.12000,5.00000
,,,-0.03276000172,5.12000,5.00000
,,,-0.03275199980,5.12000,5.00000
,,,-0.03274400160,5.12000,4.96000
,,,-0.03273599967,5.12000,4.96000
,,,-0.03272800148,5.12000,4.96000
,,,-0.03271999955,5.12000,4.96000
,,,-0.03271200135,5.12000,4.96000
,,,-0.03270399943,5.12000,4.96000
,,,-0.03269600123,5.12000,4.96000
,,,-0.03268799931,5.12000,4.96000
,,,-0.03268000111,5.12000,4.96000
,,,-0.03267199919,5.12000,5.00000
,,,-0.03266400099,5.12000,5.00000
,,,-0.03265599906,5.12000,5.00000
,,,-0.03264800087,5.12000,5.00000
,,,-0.03263999894,5.12000,5.00000
,,,-0.03263200074,5.12000,5.00000
,,,-0.03262399882,5.12000,4.96000
,,,-0.03261600062,5.12000,4.96000
,,,-0.03260799870,5.12000,4.96000
,,,-0.03260000050,5.12000,4.96000
,,,-0.03259199858,5.12000,4.96000
,,,-0.03258400038,5.12000,4.96000
,,,-0.03257599846,5.16000,4.96000
,,,-0.03256800026,5.16000,4.96000
,,,-0.03255999833,5.16000,5.00000
,,,-0.03255200014,5.16000,5.00000
,,,-0.03254399821,5.16000,5.00000
,,,-0.03253600001,5.16000,5.00000
,,,-0.03252799809,5.16000,5.00000
,,,-0.03251999989,5.16000,5.00000
,,,-0.03251200169,5.12000,5.00000
,,,-0.03250399977,5.12000,5.00000
,,,-0.03249600157,5.12000,4.96000
,,,-0.03248799965,5.12000,4.96000
,,,-0.03248000145,5.12000,4.96000
,,,-0.03247199953,5.12000,4.96000
,,,-0.03246400133,5.12000,4.96000
,,,-0.03245599940,5.12000,5.00000
,,,-0.03244800121,5.12000,5.00000
,,,-0.03243999928,5.12000,5.00000
,,,-0.03243200108,5.12000,5.00000
,,,-0.03242399916,5.12000,5.00000
,,,-0.03241600096,5.12000,5.00000
,,,-0.03240799904,5.12000,5.00000
,,,-0.03240000084,5.12000,5.00000
,,,-0.03239199892,5.12000,4.96000
,,,-0.03238400072,5.16000,4.96000
,,,-0.03237599880,5.16000,4.96000
,,,-0.03236800060,5.16000,4.96000
,,,-0.03235999867,5.16000,4.96000
,,,-0.03235200047,5.16000,4.96000
,,,-0.03234399855,5.16000,4.96000
,,,-0.03233600035,5.16000,4.96000
,,,-0.03232799843,5.12000,4.96000
,,,-0.03232000023,5.12000,4.96000
,,,-0.03231199831,5.12000,4.96000
,,,-0.03230400011,5.12000,4.96000
,,,-0.03229599819,5.12000,4.96000
,,,-0.03228799999,5.12000,4.96000
,,,-0.03227999806,5.12000,4.96000
,,,-0.03227199987,5.12000,4.96000
,,,-0.03226400167,5.16000,4.96000
,,,-0.03225599974,5.16000,4.96000
,,,-0.03224800155,5.16000,4.96000
,,,-0.03223999962,5.16000,4.96000
,,,-0.03223200142,5.12000,4.96000
,,,-0.03222399950,5.12000,4.96000
,,,-0.03221600130,5.12000,4.96000
,,,-0.03220799938,5.12000,5.00000
,,,-0.03220000118,5.12000,5.00000
,,,-0.03219199926,5.12000,4.96000
,,,-0.03218400106,5.12000,4.96000
,,,-0.03217599913,5.12000,4.96000
,,,-0.03216800094,5.12000,4.96000
,,,-0.03215999901,5.12000,4.96000
,,,-0.03215200081,5.16000,4.96000
,,,-0.03214399889,5.16000,4.96000
,,,-0.03213600069,5.16000,4.96000
,,,-0.03212799877,5.16000,4.96000
,,,-0.03212000057,5.16000,4.96000
,,,-0.03211199865,5.16000,4.96000
,,,-0.03210400045,5.16000,4.96000
,,,-0.03209599853,5.12000,4.96000
,,,-0.03208800033,5.12000,4.96000
,,,-0.03207999840,5.12000,4.96000
,,,-0.03207200021,5.12000,4.96000
,,,-0.03206399828,5.12000,4.96000
,,,-0.03205600008,5.12000,4.96000
,,,-0.03204799816,5.12000,4.96000
,,,-0.03203999996,5.12000,4.96000
,,,-0.03203200176,5.16000,4.96000
,,,-0.03202399984,5.12000,4.96000
,,,-0.03201600164,5.12000,4.96000
,,,-0.03200799972,5.12000,4.96000
,,,-0.03200000152,5.12000,4.96000
,,,-0.03199199960,5.12000,4.96000
,,,-0.03198400140,5.12000,4.96000
,,,-0.03197599947,5.12000,4.96000
,,,-0.03196800128,5.12000,4.96000
,,,-0.03195999935,5.12000,4.96000
,,,-0.03195200115,5.12000,4.96000
,,,-0.03194399923,5.12000,4.96000
,,,-0.03193600103,5.12000,4.96000
,,,-0.03192799911,5.12000,4.96000
,,,-0.03192000091,5.12000,4.96000
,,,-0.03191199899,5.12000,4.96000
,,,-0.03190400079,5.12000,4.96000
,,,-0.03189599887,5.12000,4.96000
,,,-0.03188800067,5.12000,4.96000
,,,-0.03187999874,5.12000,4.96000
,,,-0.03187200055,5.12000,4.96000
,,,-0.03186399862,5.12000,4.96000
,,,-0.03185600042,5.12000,4.96000
,,,-0.03184799850,5.12000,4.96000
,,,-0.03184000030,5.12000,4.96000
,,,-0.03183199838,5.12000,4.96000
,,,-0.03182400018,5.12000,4.96000
,,,-0.03181599826,5.12000,4.96000
,,,-0.03180800006,5.12000,4.96000
,,,-0.03179999813,5.12000,4.96000
,,,-0.03179199994,5.12000,4.96000
,,,-0.03178400174,5.12000,4.96000
,,,-0.03177599981,5.12000,4.96000
,,,-0.03176800162,5.12000,4.96000
,,,-0.03175999969,5.12000,4.96000
,,,-0.03175200149,5.12000,4.96000
,,,-0.03174399957,5.12000,4.96000
,,,-0.03173600137,5.12000,4.96000
,,,-0.03172799945,5.12000,4.96000
,,,-0.03172000125,5.12000,4.96000
,,,-0.03171199933,5.12000,4.96000
,,,-0.03170400113,5.12000,4.96000
,,,-0.03169599921,5.12000,4.96000
,,,-0.03168800101,5.12000,4.96000
,,,-0.03167999908,5.12000,4.96000
,,,-0.03167200089,5.12000,4.96000
,,,-0.03166399896,5.12000,4.96000
,,,-0.03165600076,5.12000,4.92000
,,,-0.03164799884,5.12000,4.92000
,,,-0.03164000064,5.12000,4.92000
,,,-0.03163199872,5.12000,4.92000
,,,-0.03162400052,5.12000,4.92000
,,,-0.03161599860,5.12000,4.92000
,,,-0.03160800040,5.12000,4.92000
,,,-0.03159999847,5.12000,4.92000
,,,-0.03159200028,5.12000,4.96000
,,,-0.03158399835,5.12000,4.96000
,,,-0.03157600015,5.12000,4.96000
,,,-0.03156799823,5.12000,4.96000
,,,-0.03156000003,5.12000,4.96000
,,,-0.03155199811,5.12000,4.96000
,,,-0.03154399991,5.12000,4.96000
,,,-0.03153600171,5.12000,4.96000
,,,-0.03152799979,5.12000,4.96000
,,,-0.03152000159,5.12000,4.96000
,,,-0.03151199967,5.12000,4.96000
,,,-0.03150400147,5.12000,4.96000
,,,-0.03149599954,5.12000,4.96000
,,,-0.03148800135,5.12000,4.96000
,,,-0.03147999942,5.12000,4.96000
,,,-0.03147200122,5.12000,4.96000
,,,-0.03146399930,5.12000,4.96000
,,,-0.03145600110,5.12000,4.96000
,,,-0.03144799918,5.12000,4.96000
,,,-0.03144000098,5.12000,4.96000
,,,-0.03143199906,5.12000,4.96000
,,,-0.03142400086,5.16000,4.96000
,,,-0.03141599894,5.16000,4.96000
,,,-0.03140800074,5.16000,4.96000
,,,-0.03139999881,5.16000,4.96000
,,,-0.03139200062,5.16000,4.96000
,,,-0.03138399869,5.16000,4.96000
,,,-0.03137600049,5.16000,4.96000
,,,-0.03136799857,5.16000,4.96000
,,,-0.03136000037,5.16000,4.96000
,,,-0.03135199845,5.12000,4.96000
,,,-0.03134400025,5.12000,4.96000
,,,-0.03133599833,5.12000,4.92000
,,,-0.03132800013,5.12000,4.92000
,,,-0.03131999820,5.12000,4.92000
,,,-0.03131200001,5.12000,4.92000
,,,-0.03130399808,5.12000,4.96000
,,,-0.03129599988,5.12000,4.96000
,,,-0.03128800169,5.12000,4.96000
,,,-0.03127999976,5.12000,4.96000
,,,-0.03127200156,5.12000,4.96000
,,,-0.03126399964,5.12000,4.96000
,,,-0.03125600144,5.12000,4.96000
,,,-0.03124799952,5.12000,4.92000
,,,-0.03123999946,5.12000,4.92000
,,,-0.03123199940,5.12000,4.92000
,,,-0.03122399934,5.12000,4.92000
,,,-0.03121599928,5.12000,4.92000
,,,-0.03120799921,5.12000,4.92000
,,,-0.03119999915,5.16000,4.92000
,,,-0.03119199909,5.16000,4.92000
,,,-0.03118399903,5.16000,4.92000
,,,-0.03117600083,5.16000,4.96000
,,,-0.03116800077,5.16000,4.96000
,,,-0.03116000071,5.16000,4.96000
,,,-0.03115200065,5.16000,4.92000
,,,-0.03114400059,5.16000,4.92000
,,,-0.03113600053,5.12000,4.92000
,,,-0.03112800047,5.12000,4.92000
,,,-0.03112000041,5.12000,4.92000
,,,-0.03111200035,5.12000,4.92000
,,,-0.03110400029,5.12000,4.92000
,,,-0.03109600022,5.12000,4.92000
,,,-0.03108800016,5.12000,4.92000
,,,-0.03108000010,5.16000,4.92000
,,,-0.03107200004,5.16000,4.96000
,,,-0.03106399998,5.16000,4.96000
,,,-0.03105599992,5.16000,4.96000
,,,-0.03104799986,5.16000,4.96000
,,,-0.03103999980,5.16000,4.96000
,,,-0.03103199974,5.16000,4.96000
,,,-0.03102399968,5.12000,4.92000
,,,-0.03101599962,5.12000,4.92000
,,,-0.03100799955,5.12000,4.92000
,,,-0.03099999949,5.16000,4.92000
,,,-0.03099199943,5.16000,4.92000
,,,-0.03098399937,5.16000,4.92000
,,,-0.03097599931,5.16000,4.96000
,,,-0.03096799925,5.16000,4.96000
,,,-0.03095999919,5.16000,4.96000
,,,-0.03095199913,5.16000,4.96000
,,,-0.03094399907,5.16000,4.96000
,,,-0.03093599901,5.16000,4.96000
,,,-0.03092800081,5.12000,4.92000
,,,-0.03092000075,5.12000,4.92000
,,,-0.03091200069,5.12000,4.92000
,,,-0.03090400063,5.12000,4.92000
,,,-0.03089600056,5.12000,4.92000
,,,-0.03088800050,5.12000,4.92000
,,,-0.03088000044,5.12000,4.92000
,,,-0.03087200038,5.12000,4.96000
,,,-0.03086400032,5.12000,4.96000
,,,-0.03085600026,5.12000,4.96000
,,,-0.03084800020,5.12000,4.96000
,,,-0.03084000014,5.16000,4.96000
,,,-0.03083200008,5.16000,4.96000
,,,-0.03082400002,5.16000,4.96000
,,,-0.03081599995,5.12000,4.96000
,,,-0.03080799989,5.12000,4.92000
,,,-0.03079999983,5.12000,4.92000
,,,-0.03079199977,5.12000,4.96000
,,,-0.03078399971,5.12000,4.96000
,,,-0.03077599965,5.12000,4.96000
,,,-0.03076799959,5.12000,4.96000
,,,-0.03075999953,5.12000,4.96000
,,,-0.03075199947,5.12000,4.96000
,,,-0.03074399941,5.12000,4.96000
,,,-0.03073599935,5.12000,4.96000
,,,-0.03072799928,5.12000,4.96000
,,,-0.03071999922,5.12000,4.96000
,,,-0.03071199916,5.12000,4.96000
,,,-0.03070399910,5.12000,4.92000
,,,-0.03069599904,5.12000,4.92000
,,,-0.03068800084,5.12000,4.92000
,,,-0.03068000078,5.12000,4.92000
,,,-0.03067200072,5.12000,4.92000
,,,-0.03066400066,5.12000,4.92000
,,,-0.03065600060,5.12000,4.92000
,,,-0.03064800054,5.12000,4.92000
,,,-0.03064000048,5.12000,4.92000
,,,-0.03063200042,5.12000,4.92000
,,,-0.03062400036,5.12000,4.92000
,,,-0.03061600029,5.12000,4.92000
,,,-0.03060800023,5.12000,4.92000
,,,-0.03060000017,5.12000,4.92000
,,,-0.03059200011,5.12000,4.92000
,,,-0.03058400005,5.12000,4.92000
,,,-0.03057599999,5.12000,4.92000
,,,-0.03056799993,5.12000,4.96000
,,,-0.03055999987,5.12000,4.96000
,,,-0.03055199981,5.12000,4.92000
,,,-0.03054399975,5.12000,4.92000
,,,-0.03053599969,5.12000,4.92000
,,,-0.03052799962,5.12000,4.92000
,,,-0.03051999956,5.12000,4.92000
,,,-0.03051199950,5.12000,4.92000
,,,-0.03050399944,5.12000,4.92000
,,,-0.03049599938,5.12000,4.92000
,,,-0.03048799932,5.12000,4.92000
,,,-0.03047999926,5.12000,4.92000
,,,-0.03047199920,5.12000,4.92000
,,,-0.03046399914,5.12000,4.92000
,,,-0.03045599908,5.12000,4.92000
,,,-0.03044799902,5.12000,4.92000
,,,-0.03044000082,5.12000,4.92000
,,,-0.03043200076,5.12000,4.92000
,,,-0.03042400070,5.12000,4.92000
,,,-0.03041600063,5.12000,4.92000
,,,-0.03040800057,5.12000,4.92000
,,,-0.03040000051,5.12000,4.92000
,,,-0.03039200045,5.12000,4.92000
,,,-0.03038400039,5.12000,4.92000
,,,-0.03037600033,5.12000,4.92000
,,,-0.03036800027,5.12000,4.92000
,,,-0.03036000021,5.12000,4.92000
,,,-0.03035200015,5.12000,4.92000
,,,-0.03034400009,5.12000,4.92000
,,,-0.03033600003,5.12000,4.92000
,,,-0.03032799996,5.12000,4.92000
,,,-0.03031999990,5.12000,4.92000
,,,-0.03031199984,5.12000,4.92000
,,,-0.03030399978,5.12000,4.92000
,,,-0.03029599972,5.12000,4.92000
,,,-0.03028799966,5.12000,4.92000
,,,-0.03027999960,5.12000,4.92000
,,,-0.03027199954,5.12000,4.92000
,,,-0.03026399948,5.12000,4.92000
,,,-0.03025599942,5.12000,4.92000
,,,-0.03024799936,5.12000,4.92000
,,,-0.03023999929,5.12000,4.92000
,,,-0.03023199923,5.12000,4.92000
,,,-0.03022399917,5.12000,4.92000
,,,-0.03021599911,5.12000,4.92000
,,,-0.03020799905,5.12000,4.92000
,,,-0.03020000085,5.12000,4.92000
,,,-0.03019200079,5.12000,4.92000
,,,-0.03018400073,5.12000,4.92000
,,,-0.03017600067,5.12000,4.92000
,,,-0.03016800061,5.12000,4.92000
,,,-0.03016000055,5.12000,4.92000
,,,-0.03015200049,5.12000,4.92000
,,,-0.03014400043,5.12000,4.92000
,,,-0.03013600037,5.12000,4.92000
,,,-0.03012800030,5.12000,4.92000
,,,-0.03012000024,5.12000,4.92000
,,,-0.03011200018,5.16000,4.92000
,,,-0.03010400012,5.16000,4.92000
,,,-0.03009600006,5.16000,4.92000
,,,-0.03008800000,5.16000,4.92000
,,,-0.03007999994,5.16000,4.92000
,,,-0.03007199988,5.16000,4.96000
,,,-0.03006399982,5.16000,4.92000
,,,-0.03005599976,5.16000,4.92000
,,,-0.03004799969,5.16000,4.92000
,,,-0.03003999963,5.12000,4.92000
,,,-0.03003199957,5.12000,4.92000
,,,-0.03002399951,5.12000,4.92000
,,,-0.03001599945,5.12000,4.92000
,,,-0.03000799939,5.12000,4.92000
,,,-0.02999999933,5.12000,4.92000
,,,-0.02999199927,5.12000,4.92000
,,,-0.02998399921,5.12000,4.92000
,,,-0.02997599915,5.12000,4.92000
,,,-0.02996799909,5.12000,4.92000
,,,-0.02995999902,5.12000,4.92000
,,,-0.02995200083,5.12000,4.92000
,,,-0.02994400077,5.12000,4.92000
,,,-0.02993600070,5.12000,4.92000
,,,-0.02992800064,5.12000,4.92000
,,,-0.02992000058,5.12000,4.92000
,,,-0.02991200052,5.12000,4.92000
,,,-0.02990400046,5.12000,4.92000
,,,-0.02989600040,5.12000,4.92000
,,,-0.02988800034,5.12000,4.92000
,,,-0.02988000028,5.12000,4.96000
,,,-0.02987200022,5.12000,4.96000
,,,-0.02986400016,5.12000,4.96000
,,,-0.02985600010,5.12000,4.96000
,,,-0.02984800003,5.12000,4.96000
,,,-0.02983999997,5.12000,4.96000
,,,-0.02983199991,5.12000,4.96000
,,,-0.02982399985,5.12000,4.92000
,,,-0.02981599979,5.12000,4.92000
,,,-0.02980799973,5.12000,4.92000
,,,-0.02979999967,5.12000,4.92000
,,,-0.02979199961,5.12000,4.92000
,,,-0.02978399955,5.12000,4.92000
,,,-0.02977599949,5.16000,4.92000
,,,-0.02976799943,5.16000,4.92000
,,,-0.02975999936,5.12000,4.92000
,,,-0.02975199930,5.12000,4.92000
,,,-0.02974399924,5.12000,4.92000
,,,-0.02973599918,5.12000,4.96000
,,,-0.02972799912,5.12000,4.96000
,,,-0.02971999906,5.12000,4.96000
,,,-0.02971199900,5.12000,4.92000
,,,-0.02970400080,5.12000,4.92000
,,,-0.02969600074,5.12000,4.92000
,,,-0.02968800068,5.12000,4.92000
,,,-0.02968000062,5.12000,4.92000
,,,-0.02967200056,5.16000,4.92000
,,,-0.02966400050,5.16000,4.92000
,,,-0.02965600044,5.16000,4.92000
,,,-0.02964800037,5.16000,4.92000
,,,-0.02964000031,5.16000,4.92000
,,,-0.02963200025,5.16000,4.92000
,,,-0.02962400019,5.16000,4.92000
,,,-0.02961600013,5.16000,4.92000
,,,-0.02960800007,5.12000,4.92000
,,,-0.02960000001,5.12000,4.92000
,,,-0.02959199995,5.12000,4.92000
,,,-0.02958399989,5.12000,4.92000
,,,-0.02957599983,5.12000,4.92000
,,,-0.02956799977,5.12000,4.92000
,,,-0.02955999970,5.12000,4.92000
,,,-0.02955199964,5.12000,4.92000
,,,-0.02954399958,5.12000,4.92000
,,,-0.02953599952,5.12000,4.92000
,,,-0.02952799946,5.12000,4.92000
,,,-0.02951999940,5.12000,4.92000
,,,-0.02951199934,5.12000,4.92000
,,,-0.02950399928,5.12000,4.92000
,,,-0.02949599922,5.12000,4.92000
,,,-0.02948799916,5.12000,4.92000
,,,-0.02947999910,5.12000,4.92000
,,,-0.02947199903,5.12000,4.92000
,,,-0.02946400084,5.12000,4.92000
,,,-0.02945600078,5.12000,4.92000
,,,-0.02944800071,5.12000,4.92000
,,,-0.02944000065,5.12000,4.92000
,,,-0.02943200059,5.12000,4.96000
,,,-0.02942400053,5.12000,4.96000
,,,-0.02941600047,5.12000,4.96000
,,,-0.02940800041,5.12000,4.92000
,,,-0.02940000035,5.12000,4.92000
,,,-0.02939200029,5.12000,4.92000
,,,-0.02938400023,5.16000,4.92000
,,,-0.02937600017,5.16000,4.92000
,,,-0.02936800011,5.16000,4.92000
,,,-0.02936000004,5.16000,4.92000
,,,-0.02935199998,5.16000,4.92000
,,,-0.02934399992,5.16000,4.92000
,,,-0.02933599986,5.16000,4.92000
,,,-0.02932799980,5.16000,4.92000
,,,-0.02931999974,5.16000,4.92000
,,,-0.02931199968,5.12000,4.92000
,,,-0.02930399962,5.12000,4.92000
,,,-0.02929599956,5.12000,4.92000
,,,-0.02928799950,5.12000,4.92000
,,,-0.02927999943,5.12000,4.92000
,,,-0.02927199937,5.12000,4.92000
,,,-0.02926399931,5.12000,4.92000
,,,-0.02925599925,5.12000,4.92000
,,,-0.02924799919,5.12000,4.92000
,,,-0.02923999913,5.12000,4.92000
,,,-0.02923199907,5.12000,4.92000
,,,-0.02922399901,5.12000,4.92000
,,,-0.02921600081,5.12000,4.92000
,,,-0.02920800075,5.12000,4.92000
,,,-0.02920000069,5.12000,4.92000
,,,-0.02919200063,5.16000,4.92000
,,,-0.02918400057,5.16000,4.92000
,,,-0.02917600051,5.12000,4.92000
,,,-0.02916800044,5.12000,4.92000
,,,-0.02916000038,5.12000,4.92000
,,,-0.02915200032,5.12000,4.92000
,,,-0.02914400026,5.12000,4.92000
,,,-0.02913600020,5.12000,4.92000
,,,-0.02912800014,5.12000,4.92000
,,,-0.02912000008,5.12000,4.92000
,,,-0.02911200002,5.12000,4.92000
,,,-0.02910399996,5.12000,4.92000
,,,-0.02909599990,5.12000,4.92000
,,,-0.02908799984,5.16000,4.92000
,,,-0.02907999977,5.16000,4.92000
,,,-0.02907199971,5.16000,4.92000
,,,-0.02906399965,5.12000,4.92000
,,,-0.02905599959,5.12000,4.92000
,,,-0.02904799953,5.12000,4.92000
,,,-0.02903999947,5.12000,4.92000
,,,-0.02903199941,5.12000,4.92000
,,,-0.02902399935,5.12000,4.92000
,,,-0.02901599929,5.12000,4.92000
,,,-0.02900799923,5.12000,4.92000
,,,-0.02899999917,5.16000,4.92000
,,,-0.02899199910,5.16000,4.92000
,,,-0.02898399904,5.16000,4.92000
,,,-0.02897600085,5.16000,4.92000
,,,-0.02896800078,5.16000,4.92000
,,,-0.02896000072,5.16000,4.92000
,,,-0.02895200066,5.16000,4.92000
,,,-0.02894400060,5.16000,4.92000
,,,-0.02893600054,5.16000,4.92000
,,,-0.02892800048,5.16000,4.92000
,,,-0.02892000042,5.16000,4.92000
,,,-0.02891200036,5.12000,4.92000
,,,-0.02890400030,5.12000,4.92000
,,,-0.02889600024,5.12000,4.92000
,,,-0.02888800018,5.12000,4.92000
,,,-0.02888000011,5.12000,4.92000
,,,-0.02887200005,5.12000,4.92000
,,,-0.02886399999,5.12000,4.92000
,,,-0.02885599993,5.12000,4.92000
,,,-0.02884799987,5.12000,4.92000
,,,-0.02883999981,5.12000,4.96000
,,,-0.02883199975,5.12000,4.96000
,,,-0.02882399969,5.12000,4.96000
,,,-0.02881599963,5.12000,4.96000
,,,-0.02880799957,5.12000,4.96000
,,,-0.02879999951,5.12000,4.96000
,,,-0.02879199944,5.12000,4.92000
,,,-0.02878399938,5.12000,4.92000
,,,-0.02877599932,5.12000,4.92000
,,,-0.02876799926,5.16000,4.92000
,,,-0.02875999920,5.16000,4.92000
,,,-0.02875199914,5.16000,4.92000
,,,-0.02874399908,5.16000,4.92000
,,,-0.02873599902,5.16000,4.92000
,,,-0.02872800082,5.12000,4.92000
,,,-0.02872000076,5.12000,4.92000
,,,-0.02871200070,5.12000,4.92000
,,,-0.02870400064,5.12000,4.92000
,,,-0.02869600058,5.12000,4.92000
,,,-0.02868800052,5.12000,4.96000
,,,-0.02868000045,5.16000,4.96000
,,,-0.02867200039,5.16000,4.96000
,,,-0.02866400033,5.16000,4.96000
,,,-0.02865600027,5.16000,4.96000
,,,-0.02864800021,5.16000,4.96000
,,,-0.02864000015,5.16000,4.92000
,,,-0.02863200009,5.16000,4.92000
,,,-0.02862400003,5.12000,4.92000
,,,-0.02861599997,5.12000,4.92000
,,,-0.02860799991,5.12000,4.92000
,,,-0.02859999985,5.12000,4.92000
,,,-0.02859199978,5.12000,4.92000
,,,-0.02858399972,5.12000,4.92000
,,,-0.02857599966,5.12000,4.92000
,,,-0.02856799960,5.12000,4.92000
,,,-0.02855999954,5.12000,4.92000
,,,-0.02855199948,5.12000,4.96000
,,,-0.02854399942,5.12000,4.96000
,,,-0.02853599936,5.12000,4.96000
,,,-0.02852799930,5.12000,4.96000
,,,-0.02851999924,5.12000,4.96000
,,,-0.02851199917,5.12000,4.96000
,,,-0.02850399911,5.12000,4.92000
,,,-0.02849599905,5.12000,4.92000
,,,-0.02848800085,5.12000,4.92000
,,,-0.02848000079,5.12000,4.92000
,,,-0.02847200073,5.12000,4.92000
,,,-0.02846400067,5.12000,4.92000
,,,-0.02845600061,5.12000,4.92000
,,,-0.02844800055,5.12000,4.92000
,,,-0.02844000049,5.12000,4.92000
,,,-0.02843200043,5.12000,4.92000
,,,-0.02842400037,5.12000,4.92000
,,,-0.02841600031,5.12000,4.92000
,,,-0.02840800025,5.12000,4.92000
,,,-0.02840000018,5.12000,4.92000
,,,-0.02839200012,5.12000,4.92000
,,,-0.02838400006,5.12000,4.92000
,,,-0.02837600000,5.12000,4.96000
,,,-0.02836799994,5.12000,4.96000
,,,-0.02835999988,5.12000,4.96000
,,,-0.02835199982,5.12000,4.96000
,,,-0.02834399976,5.12000,4.96000
,,,-0.02833599970,5.12000,4.96000
,,,-0.02832799964,5.12000,4.96000
,,,-0.02831999958,5.12000,4.92000
,,,-0.02831199951,5.12000,4.92000
,,,-0.02830399945,5.12000,4.96000
,,,-0.02829599939,5.12000,4.96000
,,,-0.02828799933,5.12000,4.96000
,,,-0.02827999927,5.12000,4.96000
,,,-0.02827199921,5.12000,4.96000
,,,-0.02826399915,5.12000,4.96000
,,,-0.02825599909,5.12000,4.96000
,,,-0.02824799903,5.12000,4.96000
,,,-0.02824000083,5.12000,4.92000
,,,-0.02823200077,5.12000,4.92000
,,,-0.02822400071,5.12000,4.92000
,,,-0.02821600065,5.16000,4.92000
,,,-0.02820800059,5.12000,4.92000
,,,-0.02820000052,5.12000,4.92000
,,,-0.02819200046,5.12000,4.92000
,,,-0.02818400040,5.12000,4.92000
,,,-0.02817600034,5.12000,4.92000
,,,-0.02816800028,5.12000,4.96000
,,,-0.02816000022,5.12000,4.96000
,,,-0.02815200016,5.12000,4.96000
,,,-0.02814400010,5.12000,4.96000
,,,-0.02813600004,5.12000,4.96000
,,,-0.02812799998,5.12000,4.96000
,,,-0.02811999992,5.12000,4.96000
,,,-0.02811199985,5.12000,4.96000
,,,-0.02810399979,5.12000,4.96000
,,,-0.02809599973,5.12000,4.96000
,,,-0.02808799967,5.12000,4.96000
,,,-0.02807999961,5.12000,4.96000
,,,-0.02807199955,5.12000,4.96000
,,,-0.02806399949,5.12000,4.96000
,,,-0.02805599943,5.16000,4.96000
,,,-0.02804799937,5.16000,4.96000
,,,-0.02803999931,5.16000,4.96000
,,,-0.02803199925,5.16000,4.96000
,,,-0.02802399918,5.16000,4.96000
,,,-0.02801599912,5.16000,4.96000
,,,-0.02800799906,5.12000,4.96000
,,,-0.02799999900,5.12000,4.96000
,,,-0.02799200080,5.12000,4.96000
,,,-0.02798400074,5.12000,4.96000
,,,-0.02797600068,5.12000,4.96000
,,,-0.02796800062,5.12000,4.96000
,,,-0.02796000056,5.12000,4.96000
,,,-0.02795200050,5.12000,4.96000
,,,-0.02794400044,5.12000,4.92000
,,,-0.02793600038,5.12000,4.92000
,,,-0.02792800032,5.12000,4.92000
,,,-0.02792000026,5.16000,4.92000
,,,-0.02791200019,5.16000,4.92000
,,,-0.02790400013,5.16000,4.92000
,,,-0.02789600007,5.16000,4.96000
,,,-0.02788800001,5.12000,4.96000
,,,-0.02787999995,5.12000,4.96000
,,,-0.02787199989,5.12000,4.96000
,,,-0.02786399983,5.12000,4.96000
,,,-0.02785599977,5.12000,4.96000
,,,-0.02784799971,5.12000,4.96000
,,,-0.02783999965,5.12000,4.96000
,,,-0.02783199959,5.12000,4.96000
,,,-0.02782399952,5.12000,4.96000
,,,-0.02781599946,5.12000,4.96000
,,,-0.02780799940,5.12000,4.96000
,,,-0.02779999934,5.12000,4.96000
,,,-0.02779199928,5.12000,4.96000
,,,-0.02778399922,5.12000,4.96000
,,,-0.02777599916,5.12000,4.96000
,,,-0.02776799910,5.12000,4.96000
,,,-0.02775999904,5.12000,4.96000
,,,-0.02775200084,5.12000,4.96000
,,,-0.02774400078,5.16000,4.96000
,,,-0.02773600072,5.16000,4.96000
,,,-0.02772800066,5.16000,4.96000
,,,-0.02772000059,5.16000,4.96000
,,,-0.02771200053,5.16000,4.96000
,,,-0.02770400047,5.16000,4.96000
,,,-0.02769600041,5.16000,4.96000
,,,-0.02768800035,5.16000,4.96000
,,,-0.02768000029,5.12000,4.96000
,,,-0.02767200023,5.12000,4.96000
,,,-0.02766400017,5.12000,4.96000
,,,-0.02765600011,5.12000,4.96000
,,,-0.02764800005,5.12000,4.96000
,,,-0.02763999999,5.12000,4.96000
,,,-0.02763199992,5.12000,4.96000
,,,-0.02762399986,5.12000,4.96000
,,,-0.02761599980,5.12000,4.96000
,,,-0.02760799974,5.12000,4.96000
,,,-0.02759999968,5.12000,4.96000
,,,-0.02759199962,5.12000,4.96000
,,,-0.02758399956,5.12000,4.96000
,,,-0.02757599950,5.12000,4.96000
,,,-0.02756799944,5.12000,4.96000
,,,-0.02755999938,5.12000,4.96000
,,,-0.02755199932,5.12000,4.96000
,,,-0.02754399925,5.12000,4.96000
,,,-0.02753599919,5.12000,4.96000
,,,-0.02752799913,5.12000,4.96000
,,,-0.02751999907,5.12000,4.96000
,,,-0.02751199901,5.12000,4.96000
,,,-0.02750400081,5.12000,4.96000
,,,-0.02749600075,5.12000,4.96000
,,,-0.02748800069,5.12000,4.96000
,,,-0.02748000063,5.12000,4.96000
,,,-0.02747200057,5.12000,4.96000
,,,-0.02746400051,5.12000,4.96000
,,,-0.02745600045,5.12000,4.96000
,,,-0.02744800039,5.12000,4.96000
,,,-0.02744000033,5.12000,4.96000
,,,-0.02743200026,5.12000,4.96000
,,,-0.02742400020,5.12000,4.96000
,,,-0.02741600014,5.12000,4.96000
,,,-0.02740800008,5.16000,4.96000
,,,-0.02740000002,5.16000,4.96000
,,,-0.02739199996,5.16000,4.96000
,,,-0.02738399990,5.16000,4.96000
,,,-0.02737599984,5.16000,4.96000
,,,-0.02736799978,5.16000,4.96000
,,,-0.02735999972,5.16000,4.96000
,,,-0.02735199966,5.16000,4.96000
,,,-0.02734399959,5.12000,4.96000
,,,-0.02733599953,5.12000,4.96000
,,,-0.02732799947,5.12000,4.96000
,,,-0.02731999941,5.12000,4.96000
,,,-0.02731199935,5.12000,4.96000
,,,-0.02730399929,5.12000,4.96000
,,,-0.02729599923,5.12000,4.96000
,,,-0.02728799917,5.12000,4.96000
,,,-0.02727999911,5.12000,4.96000
,,,-0.02727199905,5.12000,4.96000
,,,-0.02726400085,5.12000,4.96000
,,,-0.02725600079,5.12000,4.96000
,,,-0.02724800073,5.12000,4.96000
,,,-0.02724000067,5.12000,4.96000
,,,-0.02723200060,5.12000,4.96000
,,,-0.02722400054,5.12000,4.96000
,,,-0.02721600048,5.12000,4.96000
,,,-0.02720800042,5.12000,4.96000
,,,-0.02720000036,5.12000,4.96000
,,,-0.02719200030,5.12000,4.96000
,,,-0.02718400024,5.12000,4.96000
,,,-0.02717600018,5.12000,4.96000
,,,-0.02716800012,5.12000,4.96000
,,,-0.02716000006,5.12000,4.96000
,,,-0.02715200000,5.12000,4.96000
,,,-0.02714399993,5.12000,4.96000
,,,-0.02713599987,5.12000,4.96000
,,,-0.02712799981,5.16000,4.96000
,,,-0.02711999975,5.16000,4.96000
,,,-0.02711199969,5.16000,4.96000
,,,-0.02710399963,5.16000,4.96000
,,,-0.02709599957,5.16000,4.96000
,,,-0.02708799951,5.16000,4.96000
,,,-0.02707999945,5.16000,4.96000
,,,-0.02707199939,5.16000,4.96000
,,,-0.02706399933,5.16000,4.96000
,,,-0.02705599926,5.12000,4.96000
,,,-0.02704799920,5.12000,4.96000
,,,-0.02703999914,5.12000,4.96000
,,,-0.02703199908,5.12000,4.96000
,,,-0.02702399902,5.12000,4.96000
,,,-0.02701600082,5.12000,4.96000
,,,-0.02700800076,5.12000,4.96000
,,,-0.02700000070,5.12000,4.96000
,,,-0.02699200064,5.12000,4.96000
,,,-0.02698400058,5.12000,4.96000
,,,-0.02697600052,5.12000,4.96000
,,,-0.02696800046,5.12000,4.96000
,,,-0.02696000040,5.12000,4.96000
,,,-0.02695200033,5.12000,4.96000
,,,-0.02694400027,5.12000,4.96000
,,,-0.02693600021,5.12000,4.96000
,,,-0.02692800015,5.12000,4.96000
,,,-0.02692000009,5.12000,4.96000
,,,-0.02691200003,5.12000,4.96000
,,,-0.02690399997,5.12000,5.00000
,,,-0.02689599991,5.12000,5.00000
,,,-0.02688799985,5.12000,5.00000
,,,-0.02687999979,5.12000,4.96000
,,,-0.02687199973,5.12000,4.96000
,,,-0.02686399966,5.12000,4.96000
,,,-0.02685599960,5.12000,4.96000
,,,-0.02684799954,5.12000,4.96000
,,,-0.02683999948,5.12000,4.96000
,,,-0.02683199942,5.12000,4.96000
,,,-0.02682399936,5.16000,4.96000
,,,-0.02681599930,5.16000,4.96000
,,,-0.02680799924,5.16000,4.96000
,,,-0.02679999918,5.12000,4.96000
,,,-0.02679199912,5.12000,4.96000
,,,-0.02678399906,5.12000,4.96000
,,,-0.02677600086,5.12000,4.96000
,,,-0.02676800080,5.12000,4.96000
,,,-0.02676000074,5.12000,4.96000
,,,-0.02675200067,5.12000,4.96000
,,,-0.02674400061,5.12000,4.96000
,,,-0.02673600055,5.12000,4.96000
,,,-0.02672800049,5.12000,4.96000
,,,-0.02672000043,5.12000,4.96000
,,,-0.02671200037,5.12000,4.96000
,,,-0.02670400031,5.16000,4.96000
,,,-0.02669600025,5.16000,5.00000
,,,-0.02668800019,5.16000,5.00000
,,,-0.02668000013,5.12000,5.00000
,,,-0.02667200007,5.12000,5.00000
,,,-0.02666400000,5.12000,5.00000
,,,-0.02665599994,5.12000,5.00000
,,,-0.02664799988,5.12000,5.00000
,,,-0.02663999982,5.12000,4.96000
,,,-0.02663199976,5.12000,4.96000
,,,-0.02662399970,5.12000,4.96000
,,,-0.02661599964,5.12000,4.96000
,,,-0.02660799958,5.12000,4.96000
,,,-0.02659999952,5.12000,4.96000
,,,-0.02659199946,5.12000,4.96000
,,,-0.02658399940,5.12000,5.00000
,,,-0.02657599933,5.12000,5.00000
,,,-0.02656799927,5.12000,5.00000
,,,-0.02655999921,5.12000,5.00000
,,,-0.02655199915,5.12000,5.00000
,,,-0.02654399909,5.12000,5.00000
,,,-0.02653599903,5.12000,4.96000
,,,-0.02652800083,5.12000,4.96000
,,,-0.02652000077,5.12000,4.96000
,,,-0.02651200071,5.12000,4.96000
,,,-0.02650400065,5.12000,4.96000
,,,-0.02649600059,5.12000,5.00000
,,,-0.02648800053,5.12000,5.00000
,,,-0.02648000047,5.12000,5.00000
,,,-0.02647200041,5.12000,5.00000
,,,-0.02646400034,5.12000,5.00000
,,,-0.02645600028,5.12000,5.00000
,,,-0.02644800022,5.12000,5.00000
,,,-0.02644000016,5.12000,5.00000
,,,-0.02643200010,5.12000,5.00000
,,,-0.02642400004,5.12000,5.00000
,,,-0.02641599998,5.12000,5.00000
,,,-0.02640799992,5.12000,5.00000
,,,-0.02639999986,5.12000,5.00000
,,,-0.02639199980,5.16000,5.00000
,,,-0.02638399974,5.12000,5.00000
,,,-0.02637599967,5.12000,5.00000
,,,-0.02636799961,5.12000,5.00000
,,,-0.02635999955,5.12000,5.00000
,,,-0.02635199949,5.12000,5.00000
,,,-0.02634399943,5.12000,5.00000
,,,-0.02633599937,5.12000,5.00000
,,,-0.02632799931,5.12000,5.00000
,,,-0.02631999925,5.12000,5.00000
,,,-0.02631199919,5.12000,5.00000
,,,-0.02630399913,5.12000,5.00000
,,,-0.02629599907,5.12000,5.00000
,,,-0.02628799900,5.12000,5.00000
,,,-0.02628000081,5.12000,5.00000
,,,-0.02627200074,5.12000,5.00000
,,,-0.02626400068,5.12000,5.00000
,,,-0.02625600062,5.12000,5.00000
,,,-0.02624800056,5.12000,5.00000
,,,-0.02624000050,5.12000,5.00000
,,,-0.02623200044,5.12000,5.00000
,,,-0.02622400038,5.12000,5.00000
,,,-0.02621600032,5.12000,5.00000
,,,-0.02620800026,5.12000,5.00000
,,,-0.02620000020,5.12000,5.00000
,,,-0.02619200014,5.12000,5.00000
,,,-0.02618400007,5.12000,5.00000
,,,-0.02617600001,5.12000,5.00000
,,,-0.02616799995,5.12000,5.00000
,,,-0.02615999989,5.12000,5.00000
,,,-0.02615199983,5.12000,5.00000
,,,-0.02614399977,5.12000,5.00000
,,,-0.02613599971,5.12000,5.00000
,,,-0.02612799965,5.12000,5.00000
,,,-0.02611999959,5.12000,5.00000
,,,-0.02611199953,5.12000,5.00000
,,,-0.02610399947,5.12000,5.00000
,,,-0.02609599940,5.12000,5.00000
,,,-0.02608799934,5.12000,5.00000
,,,-0.02607999928,5.12000,5.00000
,,,-0.02607199922,5.12000,5.00000
,,,-0.02606399916,5.12000,5.00000
,,,-0.02605599910,5.12000,5.00000
,,,-0.02604799904,5.16000,5.00000
,,,-0.02604000084,5.16000,5.00000
,,,-0.02603200078,5.16000,5.00000
,,,-0.02602400072,5.16000,5.00000
,,,-0.02601600066,5.16000,5.00000
,,,-0.02600800060,5.16000,5.00000
,,,-0.02600000054,5.16000,5.00000
,,,-0.02599200048,5.16000,5.00000
,,,-0.02598400041,5.16000,5.00000
,,,-0.02597600035,5.12000,5.00000
,,,-0.02596800029,5.12000,5.00000
,,,-0.02596000023,5.12000,5.00000
,,,-0.02595200017,5.12000,5.00000
,,,-0.02594400011,5.12000,5.00000
,,,-0.02593600005,5.12000,5.00000
,,,-0.02592799999,5.12000,5.00000
,,,-0.02591999993,5.12000,5.00000
,,,-0.02591199987,5.12000,5.00000
,,,-0.02590399981,5.12000,5.00000
,,,-0.02589599974,5.12000,5.00000
,,,-0.02588799968,5.12000,5.00000
,,,-0.02587999962,5.12000,5.00000
,,,-0.02587199956,5.12000,5.00000
,,,-0.02586399950,5.12000,5.00000
,,,-0.02585599944,5.12000,5.00000
,,,-0.02584799938,5.12000,5.00000
,,,-0.02583999932,5.12000,5.00000
,,,-0.02583199926,5.12000,5.00000
,,,-0.02582399920,5.16000,5.00000
,,,-0.02581599914,5.16000,5.00000
,,,-0.02580799907,5.16000,5.00000
,,,-0.02579999901,5.16000,5.00000
,,,-0.02579200082,5.16000,5.00000
,,,-0.02578400075,5.16000,5.00000
,,,-0.02577600069,5.12000,5.00000
,,,-0.02576800063,5.12000,5.00000
,,,-0.02576000057,5.12000,5.00000
,,,-0.02575200051,5.12000,5.00000
,,,-0.02574400045,5.12000,5.00000
,,,-0.02573600039,5.12000,5.00000
,,,-0.02572800033,5.12000,5.00000
,,,-0.02572000027,5.12000,5.00000
,,,-0.02571200021,5.12000,5.00000
,,,-0.02570400015,5.12000,5.00000
,,,-0.02569600008,5.12000,5.00000
,,,-0.02568800002,5.12000,5.00000
,,,-0.02567999996,5.12000,5.00000
,,,-0.02567199990,5.12000,5.00000
,,,-0.02566399984,5.12000,5.00000
,,,-0.02565599978,5.12000,5.00000
,,,-0.02564799972,5.12000,5.00000
,,,-0.02563999966,5.12000,5.00000
,,,-0.02563199960,5.12000,5.00000
,,,-0.02562399954,5.12000,5.00000
,,,-0.02561599948,5.12000,5.00000
,,,-0.02560799941,5.12000,5.00000
,,,-0.02559999935,5.12000,5.00000
,,,-0.02559199929,5.16000,5.00000
,,,-0.02558399923,5.16000,5.00000
,,,-0.02557599917,5.16000,5.00000
,,,-0.02556799911,5.16000,5.00000
,,,-0.02555999905,5.16000,5.00000
,,,-0.02555200085,5.16000,5.00000
,,,-0.02554400079,5.16000,5.00000
,,,-0.02553600073,5.16000,5.00000
,,,-0.02552800067,5.16000,5.00000
,,,-0.02552000061,5.12000,5.00000
,,,-0.02551200055,5.12000,5.00000
,,,-0.02550400048,5.12000,5.00000
,,,-0.02549600042,5.12000,5.00000
,,,-0.02548800036,5.12000,5.00000
,,,-0.02548000030,5.12000,5.00000
,,,-0.02547200024,5.12000,5.00000
,,,-0.02546400018,5.12000,5.00000
,,,-0.02545600012,5.12000,5.00000
,,,-0.02544800006,5.12000,5.00000
,,,-0.02544000000,5.12000,5.00000
,,,-0.02543199994,5.12000,5.00000
,,,-0.02542399988,5.12000,5.00000
,,,-0.02541599981,5.12000,5.00000
,,,-0.02540799975,5.12000,5.00000
,,,-0.02539999969,5.12000,5.00000
,,,-0.02539199963,5.16000,5.00000
,,,-0.02538399957,5.16000,5.00000
,,,-0.02537599951,5.16000,5.00000
,,,-0.02536799945,5.16000,5.00000
,,,-0.02535999939,5.16000,5.00000
,,,-0.02535199933,5.16000,5.00000
,,,-0.02534399927,5.12000,5.00000
,,,-0.02533599921,5.12000,5.00000
,,,-0.02532799914,5.12000,5.00000
,,,-0.02531999908,5.12000,5.00000
,,,-0.02531199902,5.12000,5.00000
,,,-0.02530400082,5.12000,5.00000
,,,-0.02529600076,5.12000,5.00000
,,,-0.02528800070,5.12000,5.00000
,,,-0.02528000064,5.12000,5.00000
,,,-0.02527200058,5.12000,5.00000
,,,-0.02526400052,5.12000,5.00000
,,,-0.02525600046,5.12000,5.00000
,,,-0.02524800040,5.12000,5.00000
,,,-0.02524000034,5.12000,5.00000
,,,-0.02523200028,5.12000,5.00000
,,,-0.02522400022,5.12000,5.00000
,,,-0.02521600015,5.12000,5.00000
,,,-0.02520800009,5.12000,5.00000
,,,-0.02520000003,5.12000,5.00000
,,,-0.02519199997,5.12000,5.00000
,,,-0.02518399991,5.12000,5.00000
,,,-0.02517599985,5.12000,5.00000
,,,-0.02516799979,5.12000,5.00000
,,,-0.02515999973,5.12000,5.00000
,,,-0.02515199967,5.12000,5.00000
,,,-0.02514399961,5.12000,5.00000
,,,-0.02513599955,5.12000,5.00000
,,,-0.02512799948,5.12000,5.00000
,,,-0.02511999942,5.12000,5.00000
,,,-0.02511199936,5.12000,5.00000
,,,-0.02510399930,5.12000,5.00000
,,,-0.02509599924,5.12000,5.00000
,,,-0.02508799918,5.12000,5.00000
,,,-0.02507999912,5.12000,5.00000
,,,-0.02507199906,5.12000,5.00000
,,,-0.02506400086,5.12000,5.00000
,,,-0.02505600080,5.12000,5.00000
,,,-0.02504800074,5.12000,5.00000
,,,-0.02504000068,5.12000,5.00000
,,,-0.02503200062,5.12000,5.00000
,,,-0.02502400056,5.12000,5.00000
,,,-0.02501600049,5.12000,5.00000
,,,-0.02500800043,5.12000,5.00000
,,,-0.02500000037,5.12000,5.00000
,,,-0.02499200031,5.12000,5.00000
,,,-0.02498400025,5.12000,5.00000
,,,-0.02497600019,5.12000,5.00000
,,,-0.02496800013,5.12000,5.00000
,,,-0.02496000007,5.12000,5.00000
,,,-0.02495200001,5.12000,5.00000
,,,-0.02494399995,5.12000,5.00000
,,,-0.02493599989,5.12000,5.00000
,,,-0.02492799982,5.12000,5.00000
,,,-0.02491999976,5.12000,5.00000
,,,-0.02491199970,5.12000,5.00000
,,,-0.02490399964,5.12000,5.00000
,,,-0.02489599958,5.12000,5.00000
,,,-0.02488799952,5.12000,5.00000
,,,-0.02487999946,5.12000,5.00000
,,,-0.02487199940,5.12000,5.00000
,,,-0.02486399934,5.12000,5.00000
,,,-0.02485599928,5.12000,5.00000
,,,-0.02484799922,5.12000,5.00000
,,,-0.02483999915,5.12000,5.00000
,,,-0.02483199909,5.12000,5.00000
,,,-0.02482399903,5.12000,5.00000
,,,-0.02481600083,5.12000,5.00000
,,,-0.02480800077,5.12000,5.00000
,,,-0.02480000071,5.12000,5.00000
,,,-0.02479200065,5.12000,5.00000
,,,-0.02478400059,5.12000,5.00000
,,,-0.02477600053,5.12000,5.00000
,,,-0.02476800047,5.12000,5.00000
,,,-0.02476000041,5.12000,5.00000
,,,-0.02475200035,5.12000,5.00000
,,,-0.02474400029,5.12000,5.00000
,,,-0.02473600022,5.12000,5.00000
,,,-0.02472800016,5.12000,5.00000
,,,-0.02472000010,5.12000,5.00000
,,,-0.02471200004,5.12000,5.00000
,,,-0.02470399998,5.12000,5.00000
,,,-0.02469599992,5.12000,5.00000
,,,-0.02468799986,5.12000,5.00000
,,,-0.02467999980,5.12000,5.00000
,,,-0.02467199974,5.12000,5.00000
,,,-0.02466399968,5.12000,5.00000
,,,-0.02465599962,5.12000,5.00000
,,,-0.02464799955,5.12000,5.00000
,,,-0.02463999949,5.12000,5.00000
,,,-0.02463199943,5.12000,5.00000
,,,-0.02462399937,5.12000,5.00000
,,,-0.02461599931,5.12000,5.00000
,,,-0.02460799925,5.12000,5.00000
,,,-0.02459999919,5.12000,5.00000
,,,-0.02459199913,5.12000,5.00000
,,,-0.02458399907,5.12000,5.00000
,,,-0.02457600087,5.12000,5.00000
,,,-0.02456800081,5.12000,5.00000
,,,-0.02456000075,5.12000,5.00000
,,,-0.02455200069,5.12000,5.00000
,,,-0.02454400063,5.12000,5.00000
,,,-0.02453600056,5.12000,5.00000
,,,-0.02452800050,5.12000,5.00000
,,,-0.02452000044,5.12000,5.00000
,,,-0.02451200038,5.12000,5.00000
,,,-0.02450400032,5.12000,5.00000
,,,-0.02449600026,5.12000,5.00000
,,,-0.02448800020,5.12000,5.00000
,,,-0.02448000014,5.12000,5.00000
,,,-0.02447200008,5.12000,5.00000
,,,-0.02446400002,5.12000,5.00000
,,,-0.02445599996,5.12000,5.00000
,,,-0.02444799989,5.12000,5.00000
,,,-0.02443999983,5.12000,5.00000
,,,-0.02443199977,5.12000,5.00000
,,,-0.02442399971,5.12000,5.00000
,,,-0.02441599965,5.12000,5.00000
,,,-0.02440799959,5.12000,5.00000
,,,-0.02439999953,5.12000,5.00000
,,,-0.02439199947,5.12000,5.00000
,,,-0.02438399941,5.12000,5.00000
,,,-0.02437599935,5.12000,5.00000
,,,-0.02436799929,5.12000,5.00000
,,,-0.02435999922,5.12000,5.00000
,,,-0.02435199916,5.12000,5.00000
,,,-0.02434399910,5.12000,5.00000
,,,-0.02433599904,5.12000,5.00000
,,,-0.02432800084,5.12000,5.00000
,,,-0.02432000078,5.12000,5.00000
,,,-0.02431200072,5.12000,5.00000
,,,-0.02430400066,5.12000,5.00000
,,,-0.02429600060,5.12000,5.00000
,,,-0.02428800054,5.12000,5.00000
,,,-0.02428000048,5.12000,5.00000
,,,-0.02427200042,5.12000,5.00000
,,,-0.02426400036,5.12000,5.00000
,,,-0.02425600030,5.12000,5.00000
,,,-0.02424800023,5.12000,5.00000
,,,-0.02424000017,5.12000,5.00000
,,,-0.02423200011,5.12000,5.00000
,,,-0.02422400005,5.12000,5.00000
,,,-0.02421599999,5.12000,5.00000
,,,-0.02420799993,5.12000,5.00000
,,,-0.02419999987,5.12000,5.00000
,,,-0.02419199981,5.12000,5.00000
,,,-0.02418399975,5.12000,5.00000
,,,-0.02417599969,5.12000,5.00000
,,,-0.02416799963,5.12000,5.00000
,,,-0.02415999956,5.12000,5.00000
,,,-0.02415199950,5.12000,5.00000
,,,-0.02414399944,5.12000,5.00000
,,,-0.02413599938,5.12000,5.00000
,,,-0.02412799932,5.12000,5.00000
,,,-0.02411999926,5.12000,5.00000
,,,-0.02411199920,5.12000,5.00000
,,,-0.02410399914,5.12000,5.00000
,,,-0.02409599908,5.12000,5.00000
,,,-0.02408799902,5.12000,5.00000
,,,-0.02408000082,5.12000,5.00000
,,,-0.02407200076,5.12000,5.00000
,,,-0.02406400070,5.12000,5.00000
,,,-0.02405600064,5.12000,5.00000
,,,-0.02404800057,5.12000,5.00000
,,,-0.02404000051,5.12000,5.00000
,,,-0.02403200045,5.12000,5.00000
,,,-0.02402400039,5.12000,5.00000
,,,-0.02401600033,5.12000,5.00000
,,,-0.02400800027,5.12000,5.00000
,,,-0.02400000021,5.12000,5.00000
,,,-0.02399200015,5.12000,5.00000
,,,-0.02398400009,5.12000,5.00000
,,,-0.02397600003,5.12000,5.00000
,,,-0.02396799996,5.16000,5.00000
,,,-0.02395999990,5.16000,5.00000
,,,-0.02395199984,5.16000,5.00000
,,,-0.02394399978,5.16000,5.00000
,,,-0.02393599972,5.16000,5.00000
,,,-0.02392799966,5.16000,5.00000
,,,-0.02391999960,5.12000,5.00000
,,,-0.02391199954,5.12000,5.00000
,,,-0.02390399948,5.12000,5.00000
,,,-0.02389599942,5.12000,5.00000
,,,-0.02388799936,5.12000,5.00000
,,,-0.02387999929,5.12000,5.00000
,,,-0.02387199923,5.12000,5.00000
,,,-0.02386399917,5.12000,5.00000
,,,-0.02385599911,5.12000,5.00000
,,,-0.02384799905,5.12000,5.00000
,,,-0.02384000085,5.12000,5.00000
,,,-0.02383200079,5.12000,5.00000
,,,-0.02382400073,5.16000,5.00000
,,,-0.02381600067,5.16000,5.00000
,,,-0.02380800061,5.16000,5.00000
,,,-0.02380000055,5.16000,5.00000
,,,-0.02379200049,5.12000,5.00000
,,,-0.02378400043,5.12000,5.00000
,,,-0.02377600037,5.12000,5.00000
,,,-0.02376800030,5.12000,5.00000
,,,-0.02376000024,5.12000,5.00000
,,,-0.02375200018,5.12000,5.00000
,,,-0.02374400012,5.12000,5.00000
,,,-0.02373600006,5.12000,5.00000
,,,-0.02372800000,5.12000,5.00000
,,,-0.02371999994,5.12000,5.00000
,,,-0.02371199988,5.12000,5.00000
,,,-0.02370399982,5.12000,5.00000
,,,-0.02369599976,5.12000,5.00000
,,,-0.02368799970,5.12000,5.00000
,,,-0.02367999963,5.12000,5.00000
,,,-0.02367199957,5.12000,5.00000
,,,-0.02366399951,5.12000,5.00000
,,,-0.02365599945,5.12000,5.00000
,,,-0.02364799939,5.12000,5.00000
,,,-0.02363999933,5.12000,5.00000
,,,-0.02363199927,5.12000,5.00000
,,,-0.02362399921,5.12000,5.00000
,,,-0.02361599915,5.12000,5.00000
,,,-0.02360799909,5.12000,5.00000
,,,-0.02359999903,5.12000,5.00000
,,,-0.02359200083,5.12000,5.00000
,,,-0.02358400077,5.12000,5.00000
,,,-0.02357600071,5.12000,5.00000
,,,-0.02356800064,5.12000,5.00000
,,,-0.02356000058,5.12000,5.00000
,,,-0.02355200052,5.12000,5.00000
,,,-0.02354400046,5.12000,5.00000
,,,-0.02353600040,5.12000,5.00000
,,,-0.02352800034,5.12000,5.00000
,,,-0.02352000028,5.12000,5.00000
,,,-0.02351200022,5.12000,5.00000
,,,-0.02350400016,5.12000,5.00000
,,,-0.02349600010,5.12000,5.00000
,,,-0.02348800004,5.12000,5.00000
,,,-0.02347999997,5.12000,5.00000
,,,-0.02347199991,5.12000,5.00000
,,,-0.02346399985,5.12000,5.00000
,,,-0.02345599979,5.12000,5.00000
,,,-0.02344799973,5.12000,5.00000
,,,-0.02343999967,5.12000,5.00000
,,,-0.02343199961,5.12000,5.00000
,,,-0.02342399955,5.12000,5.00000
,,,-0.02341599949,5.12000,5.00000
,,,-0.02340799943,5.12000,5.00000
,,,-0.02339999937,5.12000,5.00000
,,,-0.02339199930,5.12000,5.00000
,,,-0.02338399924,5.12000,5.00000
,,,-0.02337599918,5.12000,5.00000
,,,-0.02336799912,5.12000,5.00000
,,,-0.02335999906,5.12000,5.00000
,,,-0.02335200086,5.12000,5.00000
,,,-0.02334400080,5.12000,5.00000
,,,-0.02333600074,5.12000,5.00000
,,,-0.02332800068,5.12000,5.00000
,,,-0.02332000062,5.12000,5.00000
,,,-0.02331200056,5.12000,5.00000
,,,-0.02330400050,5.12000,5.00000
,,,-0.02329600044,5.12000,5.00000
,,,-0.02328800038,5.12000,5.00000
,,,-0.02328000031,5.12000,5.00000
,,,-0.02327200025,5.12000,5.00000
,,,-0.02326400019,5.12000,5.00000
,,,-0.02325600013,5.12000,5.00000
,,,-0.02324800007,5.12000,5.00000
,,,-0.02324000001,5.12000,5.00000
,,,-0.02323199995,5.12000,5.00000
,,,-0.02322399989,5.12000,5.00000
,,,-0.02321599983,5.12000,5.00000
,,,-0.02320799977,5.12000,5.00000
,,,-0.02319999970,5.12000,5.00000
,,,-0.02319199964,5.12000,5.00000
,,,-0.02318399958,5.12000,5.00000
,,,-0.02317599952,5.12000,5.00000
,,,-0.02316799946,5.12000,5.00000
,,,-0.02315999940,5.12000,5.00000
,,,-0.02315199934,5.12000,5.00000
,,,-0.02314399928,5.12000,5.00000
,,,-0.02313599922,5.12000,5.00000
,,,-0.02312799916,5.12000,5.00000
,,,-0.02311999910,5.12000,5.00000
,,,-0.02311199903,5.12000,5.00000
,,,-0.02310400084,5.12000,5.00000
,,,-0.02309600078,5.12000,5.00000
,,,-0.02308800071,5.12000,5.00000
,,,-0.02308000065,5.12000,5.00000
,,,-0.02307200059,5.12000,5.00000
,,,-0.02306400053,5.12000,5.00000
,,,-0.02305600047,5.12000,5.00000
,,,-0.02304800041,5.12000,5.00000
,,,-0.02304000035,5.12000,5.00000
,,,-0.02303200029,5.12000,5.00000
,,,-0.02302400023,5.12000,5.00000
,,,-0.02301600017,5.12000,5.00000
,,,-0.02300800011,5.12000,5.00000
,,,-0.02300000004,5.12000,5.00000
,,,-0.02299199998,5.12000,5.00000
,,,-0.02298399992,5.12000,5.00000
,,,-0.02297599986,5.12000,5.00000
,,,-0.02296799980,5.12000,5.00000
,,,-0.02295999974,5.12000,5.00000
,,,-0.02295199968,5.12000,5.00000
,,,-0.02294399962,5.12000,5.00000
,,,-0.02293599956,5.16000,5.00000
,,,-0.02292799950,5.16000,5.00000
,,,-0.02291999944,5.12000,5.00000
,,,-0.02291199937,5.12000,5.00000
,,,-0.02290399931,5.12000,5.00000
,,,-0.02289599925,5.12000,5.00000
,,,-0.02288799919,5.12000,5.00000
,,,-0.02287999913,5.12000,5.00000
,,,-0.02287199907,5.12000,5.00000
,,,-0.02286400087,5.12000,5.00000
,,,-0.02285600081,5.16000,4.96000
,,,-0.02284800075,5.16000,4.96000
,,,-0.02284000069,5.16000,4.96000
,,,-0.02283200063,5.16000,4.96000
,,,-0.02282400057,5.16000,4.96000
,,,-0.02281600051,5.16000,4.96000
,,,-0.02280800045,5.16000,5.00000
,,,-0.02280000038,5.16000,5.00000
,,,-0.02279200032,5.12000,5.00000
,,,-0.02278400026,5.12000,5.00000
,,,-0.02277600020,5.12000,5.00000
,,,-0.02276800014,5.12000,5.00000
,,,-0.02276000008,5.12000,5.00000
,,,-0.02275200002,5.12000,5.00000
,,,-0.02274399996,5.12000,5.00000
,,,-0.02273599990,5.12000,5.00000
,,,-0.02272799984,5.16000,5.00000
,,,-0.02271999978,5.16000,5.00000
,,,-0.02271199971,5.12000,5.00000
,,,-0.02270399965,5.12000,4.96000
,,,-0.02269599959,5.12000,4.96000
,,,-0.02268799953,5.12000,4.96000
,,,-0.02267999947,5.12000,4.96000
,,,-0.02267199941,5.12000,4.96000
,,,-0.02266399935,5.12000,5.00000
,,,-0.02265599929,5.12000,5.00000
,,,-0.02264799923,5.12000,5.00000
,,,-0.02263999917,5.12000,5.00000
,,,-0.02263199911,5.12000,5.00000
,,,-0.02262399904,5.12000,5.00000
,,,-0.02261600085,5.12000,5.00000
,,,-0.02260800079,5.12000,5.00000
,,,-0.02260000072,5.12000,5.00000
,,,-0.02259200066,5.12000,5.00000
,,,-0.02258400060,5.12000,5.00000
,,,-0.02257600054,5.12000,5.00000
,,,-0.02256800048,5.12000,5.00000
,,,-0.02256000042,5.12000,5.00000
,,,-0.02255200036,5.12000,4.96000
,,,-0.02254400030,5.12000,4.96000
,,,-0.02253600024,5.12000,4.96000
,,,-0.02252800018,5.12000,5.00000
,,,-0.02252000012,5.12000,5.00000
,,,-0.02251200005,5.12000,5.00000
,,,-0.02250399999,5.12000,5.00000
,,,-0.02249599993,5.12000,5.00000
,,,-0.02248799987,5.12000,5.00000
,,,-0.02247999981,5.12000,4.96000
,,,-0.02247199975,5.12000,4.96000
,,,-0.02246399969,5.12000,4.96000
,,,-0.02245599963,5.12000,4.96000
,,,-0.02244799957,5.12000,4.96000
,,,-0.02243999951,5.12000,4.96000
,,,-0.02243199944,5.12000,4.96000
,,,-0.02242399938,5.12000,4.96000
,,,-0.02241599932,5.12000,4.96000
,,,-0.02240799926,5.12000,4.96000
,,,-0.02239999920,5.12000,4.96000
,,,-0.02239199914,5.12000,4.96000
,,,-0.02238399908,5.12000,4.96000
,,,-0.02237599902,5.12000,4.96000
,,,-0.02236800082,5.12000,4.96000
,,,-0.02236000076,5.12000,5.00000
,,,-0.02235200070,5.12000,4.96000
,,,-0.02234400064,5.12000,4.96000
,,,-0.02233600058,5.12000,4.96000
,,,-0.02232800052,5.12000,4.96000
,,,-0.02232000045,5.12000,4.96000
,,,-0.02231200039,5.12000,4.96000
,,,-0.02230400033,5.12000,4.96000
,,,-0.02229600027,5.12000,4.96000
,,,-0.02228800021,5.12000,4.96000
,,,-0.02228000015,5.12000,4.96000
,,,-0.02227200009,5.12000,4.96000
,,,-0.02226400003,5.12000,4.96000
,,,-0.02225599997,5.12000,4.96000
,,,-0.02224799991,5.12000,4.96000
,,,-0.02223999985,5.12000,4.96000
,,,-0.02223199978,5.12000,4.96000
,,,-0.02222399972,5.12000,4.96000
,,,-0.02221599966,5.12000,4.96000
,,,-0.02220799960,5.12000,4.96000
,,,-0.02219999954,5.12000,4.96000
,,,-0.02219199948,5.12000,4.96000
,,,-0.02218399942,5.12000,4.96000
,,,-0.02217599936,5.12000,4.96000
,,,-0.02216799930,5.12000,4.96000
,,,-0.02215999924,5.12000,4.96000
,,,-0.02215199918,5.12000,4.96000
,,,-0.02214399911,5.12000,4.96000
,,,-0.02213599905,5.12000,4.96000
,,,-0.02212800086,5.12000,4.96000
,,,-0.02212000079,5.12000,4.96000
,,,-0.02211200073,5.12000,4.96000
,,,-0.02210400067,5.12000,4.96000
,,,-0.02209600061,5.12000,4.96000
,,,-0.02208800055,5.12000,4.96000
,,,-0.02208000049,5.12000,4.96000
,,,-0.02207200043,5.12000,4.96000
,,,-0.02206400037,5.12000,4.96000
,,,-0.02205600031,5.12000,4.96000
,,,-0.02204800025,5.12000,4.96000
,,,-0.02204000019,5.12000,4.96000
,,,-0.02203200012,5.12000,4.96000
,,,-0.02202400006,5.12000,4.96000
,,,-0.02201600000,5.12000,4.96000
,,,-0.02200799994,5.12000,4.96000
,,,-0.02199999988,5.12000,4.96000
,,,-0.02199199982,5.12000,4.96000
,,,-0.02198399976,5.12000,4.96000
,,,-0.02197599970,5.12000,4.96000
,,,-0.02196799964,5.12000,4.96000
,,,-0.02195999958,5.12000,4.96000
,,,-0.02195199952,5.12000,4.96000
,,,-0.02194399945,5.12000,4.96000
,,,-0.02193599939,5.12000,4.96000
,,,-0.02192799933,5.12000,4.96000
,,,-0.02191999927,5.12000,4.96000
,,,-0.02191199921,5.12000,4.96000
,,,-0.02190399915,5.12000,4.96000
,,,-0.02189599909,5.12000,4.96000
,,,-0.02188799903,5.12000,4.96000
,,,-0.02188000083,5.12000,4.96000
,,,-0.02187200077,5.12000,4.96000
,,,-0.02186400071,5.12000,4.96000
,,,-0.02185600065,5.12000,4.96000
,,,-0.02184800059,5.12000,4.96000
,,,-0.02184000053,5.12000,4.96000
,,,-0.02183200046,5.12000,4.96000
,,,-0.02182400040,5.12000,4.96000
,,,-0.02181600034,5.12000,4.96000
,,,-0.02180800028,5.12000,4.96000
,,,-0.02180000022,5.12000,4.96000
,,,-0.02179200016,5.12000,4.96000
,,,-0.02178400010,5.12000,4.96000
,,,-0.02177600004,5.12000,4.96000
,,,-0.02176799998,5.12000,4.96000
,,,-0.02175999992,5.12000,4.96000
,,,-0.02175199986,5.12000,4.96000
,,,-0.02174399979,5.12000,4.96000
,,,-0.02173599973,5.12000,4.96000
,,,-0.02172799967,5.12000,4.96000
,,,-0.02171999961,5.12000,4.96000
,,,-0.02171199955,5.12000,4.96000
,,,-0.02170399949,5.12000,4.96000
,,,-0.02169599943,5.12000,4.96000
,,,-0.02168799937,5.12000,4.96000
,,,-0.02167999931,5.12000,4.96000
,,,-0.02167199925,5.12000,4.96000
,,,-0.02166399918,5.12000,4.96000
,,,-0.02165599912,5.12000,4.96000
,,,-0.02164799906,5.12000,4.96000
,,,-0.02164000086,5.12000,4.96000
,,,-0.02163200080,5.12000,4.96000
,,,-0.02162400074,5.12000,4.96000
,,,-0.02161600068,5.12000,4.92000
,,,-0.02160800062,5.12000,4.92000
,,,-0.02160000056,5.12000,4.92000
,,,-0.02159200050,5.12000,4.92000
,,,-0.02158400044,5.12000,4.92000
,,,-0.02157600038,5.12000,4.96000
,,,-0.02156800032,5.12000,4.96000
,,,-0.02156000026,5.12000,4.96000
,,,-0.02155200019,5.12000,4.96000
,,,-0.02154400013,5.12000,4.96000
,,,-0.02153600007,5.12000,4.96000
,,,-0.02152800001,5.12000,4.96000
,,,-0.02151999995,5.16000,4.96000
,,,-0.02151199989,5.16000,4.96000
,,,-0.02150399983,5.12000,4.96000
,,,-0.02149599977,5.12000,4.96000
,,,-0.02148799971,5.12000,4.96000
,,,-0.02147999965,5.12000,4.96000
,,,-0.02147199959,5.12000,4.96000
,,,-0.02146399952,5.12000,4.96000
,,,-0.02145599946,5.12000,4.96000
,,,-0.02144799940,5.12000,4.96000
,,,-0.02143999934,5.12000,4.96000
,,,-0.02143199928,5.12000,4.96000
,,,-0.02142399922,5.12000,4.96000
,,,-0.02141599916,5.12000,4.96000
,,,-0.02140799910,5.12000,4.96000
,,,-0.02139999904,5.16000,4.96000
,,,-0.02139200084,5.12000,4.96000
,,,-0.02138400078,5.12000,4.96000
,,,-0.02137600072,5.12000,4.96000
,,,-0.02136800066,5.12000,4.96000
,,,-0.02136000060,5.12000,4.96000
,,,-0.02135200053,5.12000,4.96000
,,,-0.02134400047,5.12000,4.96000
,,,-0.02133600041,5.12000,4.96000
,,,-0.02132800035,5.12000,4.96000
,,,-0.02132000029,5.12000,4.96000
,,,-0.02131200023,5.12000,4.96000
,,,-0.02130400017,5.12000,4.96000
,,,-0.02129600011,5.12000,4.96000
,,,-0.02128800005,5.12000,4.96000
,,,-0.02127999999,5.12000,4.96000
,,,-0.02127199993,5.12000,4.92000
,,,-0.02126399986,5.12000,4.92000
,,,-0.02125599980,5.12000,4.92000
,,,-0.02124799974,5.12000,4.92000
,,,-0.02123999968,5.12000,4.92000
,,,-0.02123199962,5.12000,4.92000
,,,-0.02122399956,5.12000,4.92000
,,,-0.02121599950,5.12000,4.92000
,,,-0.02120799944,5.12000,4.92000
,,,-0.02119999938,5.12000,4.92000
,,,-0.02119199932,5.12000,4.96000
,,,-0.02118399926,5.12000,4.96000
,,,-0.02117599919,5.12000,4.96000
,,,-0.02116799913,5.12000,4.96000
,,,-0.02115999907,5.12000,4.96000
,,,-0.02115200087,5.12000,4.96000
,,,-0.02114400081,5.12000,4.96000
,,,-0.02113600075,5.12000,4.96000
,,,-0.02112800069,5.12000,4.92000
,,,-0.02112000063,5.12000,4.92000
,,,-0.02111200057,5.12000,4.92000
,,,-0.02110400051,5.12000,4.92000
,,,-0.02109600045,5.12000,4.92000
,,,-0.02108800039,5.12000,4.96000
,,,-0.02108000033,5.12000,4.96000
,,,-0.02107200027,5.12000,4.96000
,,,-0.02106400020,5.12000,4.96000
,,,-0.02105600014,5.12000,4.96000
,,,-0.02104800008,5.12000,4.96000
,,,-0.02104000002,5.12000,4.96000
,,,-0.02103199996,5.12000,4.96000
,,,-0.02102399990,5.12000,4.96000
,,,-0.02101599984,5.12000,4.96000
,,,-0.02100799978,5.12000,4.92000
,,,-0.02099999972,5.12000,4.92000
,,,-0.02099199966,5.12000,4.92000
,,,-0.02098399960,5.16000,4.92000
,,,-0.02097599953,5.16000,4.92000
,,,-0.02096799947,5.16000,4.92000
,,,-0.02095999941,5.16000,4.92000
,,,-0.02095199935,5.16000,4.92000
,,,-0.02094399929,5.16000,4.92000
,,,-0.02093599923,5.16000,4.92000
,,,-0.02092799917,5.12000,4.92000
,,,-0.02091999911,5.12000,4.92000
,,,-0.02091199905,5.12000,4.92000
,,,-0.02090400085,5.12000,4.96000
,,,-0.02089600079,5.12000,4.96000
,,,-0.02088800073,5.12000,4.96000
,,,-0.02088000067,5.12000,4.96000
,,,-0.02087200060,5.12000,4.96000
,,,-0.02086400054,5.12000,4.96000
,,,-0.02085600048,5.12000,4.96000
,,,-0.02084800042,5.12000,4.96000
,,,-0.02084000036,5.12000,4.96000
,,,-0.02083200030,5.12000,4.96000
,,,-0.02082400024,5.12000,4.96000
,,,-0.02081600018,5.12000,4.96000
,,,-0.02080800012,5.12000,4.92000
,,,-0.02080000006,5.16000,4.92000
,,,-0.02079200000,5.16000,4.92000
,,,-0.02078399993,5.16000,4.92000
,,,-0.02077599987,5.16000,4.92000
,,,-0.02076799981,5.12000,4.92000
,,,-0.02075999975,5.12000,4.92000
,,,-0.02075199969,5.12000,4.92000
,,,-0.02074399963,5.12000,4.92000
,,,-0.02073599957,5.12000,4.92000
,,,-0.02072799951,5.12000,4.92000
,,,-0.02071999945,5.12000,4.92000
,,,-0.02071199939,5.12000,4.92000
,,,-0.02070399933,5.12000,4.92000
,,,-0.02069599926,5.12000,4.92000
,,,-0.02068799920,5.12000,4.92000
,,,-0.02067999914,5.12000,4.92000
,,,-0.02067199908,5.12000,4.92000
,,,-0.02066399902,5.12000,4.92000
,,,-0.02065600082,5.12000,4.92000
,,,-0.02064800076,5.12000,4.92000
,,,-0.02064000070,5.12000,4.92000
,,,-0.02063200064,5.12000,4.92000
,,,-0.02062400058,5.12000,4.92000
,,,-0.02061600052,5.16000,4.92000
,,,-0.02060800046,5.16000,4.92000
,,,-0.02060000040,5.16000,4.92000
,,,-0.02059200034,5.16000,4.92000
,,,-0.02058400027,5.16000,4.92000
,,,-0.02057600021,5.16000,4.92000
,,,-0.02056800015,5.16000,4.92000
,,,-0.02056000009,5.16000,4.92000
,,,-0.02055200003,5.16000,4.92000
,,,-0.02054399997,5.16000,4.92000
,,,-0.02053599991,5.12000,4.92000
,,,-0.02052799985,5.12000,4.92000
,,,-0.02051999979,5.12000,4.92000
,,,-0.02051199973,5.12000,4.92000
,,,-0.02050399967,5.12000,4.92000
,,,-0.02049599960,5.12000,4.92000
,,,-0.02048799954,5.12000,4.92000
,,,-0.02047999948,5.12000,4.92000
,,,-0.02047199942,5.12000,4.92000
,,,-0.02046399936,5.12000,4.92000
,,,-0.02045599930,5.12000,4.92000
,,,-0.02044799924,5.12000,4.92000
,,,-0.02043999918,5.16000,4.92000
,,,-0.02043199912,5.16000,4.92000
,,,-0.02042399906,5.12000,4.92000
,,,-0.02041600086,5.12000,4.92000
,,,-0.02040800080,5.12000,4.92000
,,,-0.02040000074,5.12000,4.92000
,,,-0.02039200068,5.12000,4.92000
,,,-0.02038400061,5.12000,4.92000
,,,-0.02037600055,5.12000,4.92000
,,,-0.02036800049,5.12000,4.92000
,,,-0.02036000043,5.12000,4.92000
,,,-0.02035200037,5.12000,4.96000
,,,-0.02034400031,5.12000,4.92000
,,,-0.02033600025,5.12000,4.92000
,,,-0.02032800019,5.12000,4.92000
,,,-0.02032000013,5.16000,4.92000
,,,-0.02031200007,5.16000,4.92000
,,,-0.02030400001,5.16000,4.92000
,,,-0.02029599994,5.16000,4.92000
,,,-0.02028799988,5.16000,4.92000
,,,-0.02027999982,5.16000,4.92000
,,,-0.02027199976,5.12000,4.92000
,,,-0.02026399970,5.12000,4.92000
,,,-0.02025599964,5.12000,4.92000
,,,-0.02024799958,5.12000,4.92000
,,,-0.02023999952,5.12000,4.92000
,,,-0.02023199946,5.12000,4.92000
,,,-0.02022399940,5.12000,4.92000
,,,-0.02021599934,5.12000,4.92000
,,,-0.02020799927,5.12000,4.92000
,,,-0.02019999921,5.12000,4.92000
,,,-0.02019199915,5.12000,4.92000
,,,-0.02018399909,5.12000,4.92000
,,,-0.02017599903,5.12000,4.92000
,,,-0.02016800083,5.12000,4.92000
,,,-0.02016000077,5.12000,4.92000
,,,-0.02015200071,5.12000,4.92000
,,,-0.02014400065,5.12000,4.92000
,,,-0.02013600059,5.12000,4.96000
,,,-0.02012800053,5.12000,4.92000
,,,-0.02012000047,5.12000,4.92000
,,,-0.02011200041,5.12000,4.92000
,,,-0.02010400034,5.12000,4.92000
,,,-0.02009600028,5.12000,4.92000
,,,-0.02008800022,5.12000,4.92000
,,,-0.02008000016,5.12000,4.92000
,,,-0.02007200010,5.12000,4.92000
,,,-0.02006400004,5.12000,4.92000
,,,-0.02005599998,5.12000,4.92000
,,,-0.02004799992,5.12000,4.92000
,,,-0.02003999986,5.12000,4.92000
,,,-0.02003199980,5.12000,4.92000
,,,-0.02002399974,5.12000,4.92000
,,,-0.02001599967,5.12000,4.92000
,,,-0.02000799961,5.12000,4.92000
,,,-0.01999999955,5.12000,4.92000
,,,-0.01999199949,5.12000,4.92000
,,,-0.01998399943,5.12000,4.92000
,,,-0.01997599937,5.12000,4.92000
,,,-0.01996799931,5.12000,4.92000
,,,-0.01995999925,5.12000,4.92000
,,,-0.01995199919,5.12000,4.92000
,,,-0.01994399913,5.12000,4.92000
,,,-0.01993599907,5.12000,4.92000
,,,-0.01992800087,5.12000,4.92000
,,,-0.01992000081,5.12000,4.92000
,,,-0.01991200075,5.12000,4.92000
,,,-0.01990400068,5.12000,4.92000
,,,-0.01989600062,5.12000,4.92000
,,,-0.01988800056,5.12000,4.92000
,,,-0.01988000050,5.12000,4.92000
,,,-0.01987200044,5.12000,4.92000
,,,-0.01986400038,5.12000,4.92000
,,,-0.01985600032,5.12000,4.96000
,,,-0.01984800026,5.12000,4.96000
,,,-0.01984000020,5.12000,4.96000
,,,-0.01983200014,5.12000,4.96000
,,,-0.01982400008,5.12000,4.96000
,,,-0.01981600001,5.12000,4.96000
,,,-0.01980799995,5.12000,4.96000
,,,-0.01979999989,5.12000,4.92000
,,,-0.01979199983,5.12000,4.92000
,,,-0.01978399977,5.12000,4.92000
,,,-0.01977599971,5.12000,4.92000
,,,-0.01976799965,5.12000,4.92000
,,,-0.01975999959,5.12000,4.92000
,,,-0.01975199953,5.12000,4.92000
,,,-0.01974399947,5.12000,4.92000
,,,-0.01973599941,5.12000,4.92000
,,,-0.01972799934,5.12000,4.92000
,,,-0.01971999928,5.12000,4.92000
,,,-0.01971199922,5.12000,4.92000
,,,-0.01970399916,5.12000,4.92000
,,,-0.01969599910,5.12000,4.92000
,,,-0.01968799904,5.12000,4.92000
,,,-0.01968000084,5.12000,4.92000
,,,-0.01967200078,5.12000,4.92000
,,,-0.01966400072,5.12000,4.92000
,,,-0.01965600066,5.12000,4.92000
,,,-0.01964800060,5.12000,4.92000
,,,-0.01964000054,5.12000,4.92000
,,,-0.01963200048,5.12000,4.92000
,,,-0.01962400042,5.12000,4.92000
,,,-0.01961600035,5.12000,4.92000
,,,-0.01960800029,5.12000,4.92000
,,,-0.01960000023,5.12000,4.92000
,,,-0.01959200017,5.12000,4.92000
,,,-0.01958400011,5.12000,4.92000
,,,-0.01957600005,5.12000,4.92000
,,,-0.01956799999,5.12000,4.92000
,,,-0.01955999993,5.12000,4.92000
,,,-0.01955199987,5.12000,4.92000
,,,-0.01954399981,5.12000,4.92000
,,,-0.01953599975,5.12000,4.92000
,,,-0.01952799968,5.12000,4.92000
,,,-0.01951999962,5.12000,4.92000
,,,-0.01951199956,5.12000,4.96000
,,,-0.01950399950,5.12000,4.92000
,,,-0.01949599944,5.12000,4.92000
,,,-0.01948799938,5.12000,4.92000
,,,-0.01947999932,5.12000,4.92000
,,,-0.01947199926,5.12000,4.92000
,,,-0.01946399920,5.12000,4.92000
,,,-0.01945599914,5.12000,4.92000
,,,-0.01944799908,5.12000,4.92000
,,,-0.01944000088,5.12000,4.92000
,,,-0.01943200082,5.12000,4.92000
,,,-0.01942400075,5.12000,4.92000
,,,-0.01941600069,5.12000,4.92000
,,,-0.01940800063,5.12000,4.92000
,,,-0.01940000057,5.12000,4.92000
,,,-0.01939200051,5.12000,4.92000
,,,-0.01938400045,5.12000,4.92000
,,,-0.01937600039,5.12000,4.92000
,,,-0.01936800033,5.12000,4.92000
,,,-0.01936000027,5.12000,4.92000
,,,-0.01935200021,5.12000,4.92000
,,,-0.01934400015,5.12000,4.92000
,,,-0.01933600008,5.12000,4.92000
,,,-0.01932800002,5.12000,4.92000
,,,-0.01931999996,5.12000,4.92000
,,,-0.01931199990,5.12000,4.92000
,,,-0.01930399984,5.12000,4.92000
,,,-0.01929599978,5.12000,4.92000
,,,-0.01928799972,5.12000,4.92000
,,,-0.01927999966,5.12000,4.92000
,,,-0.01927199960,5.12000,4.96000
,,,-0.01926399954,5.12000,4.92000
,,,-0.01925599948,5.12000,4.92000
,,,-0.01924799941,5.12000,4.92000
,,,-0.01923999935,5.12000,4.92000
,,,-0.01923199929,5.12000,4.92000
,,,-0.01922399923,5.12000,4.92000
,,,-0.01921599917,5.12000,4.92000
,,,-0.01920799911,5.12000,4.92000
,,,-0.01919999905,5.12000,4.92000
,,,-0.01919200085,5.12000,4.92000
,,,-0.01918400079,5.12000,4.92000
,,,-0.01917600073,5.12000,4.92000
,,,-0.01916800067,5.12000,4.92000
,,,-0.01916000061,5.12000,4.92000
,,,-0.01915200055,5.12000,4.92000
,,,-0.01914400049,5.12000,4.92000
,,,-0.01913600042,5.12000,4.92000
,,,-0.01912800036,5.12000,4.92000
,,,-0.01912000030,5.12000,4.92000
,,,-0.01911200024,5.12000,4.92000
,,,-0.01910400018,5.12000,4.92000
,,,-0.01909600012,5.12000,4.92000
,,,-0.01908800006,5.12000,4.92000
,,,-0.01908000000,5.12000,4.92000
,,,-0.01907199994,5.12000,4.92000
,,,-0.01906399988,5.12000,4.92000
,,,-0.01905599982,5.12000,4.92000
,,,-0.01904799975,5.12000,4.92000
,,,-0.01903999969,5.12000,4.92000
,,,-0.01903199963,5.12000,4.92000
,,,-0.01902399957,5.12000,4.92000
,,,-0.01901599951,5.12000,4.92000
,,,-0.01900799945,5.12000,4.92000
,,,-0.01899999939,5.12000,4.92000
,,,-0.01899199933,5.12000,4.92000
,,,-0.01898399927,5.12000,4.92000
,,,-0.01897599921,5.12000,4.92000
,,,-0.01896799915,5.12000,4.92000
,,,-0.01895999908,5.12000,4.92000
,,,-0.01895199902,5.12000,4.92000
,,,-0.01894400083,5.12000,4.92000
,,,-0.01893600076,5.12000,4.92000
,,,-0.01892800070,5.12000,4.92000
,,,-0.01892000064,5.12000,4.92000
,,,-0.01891200058,5.12000,4.92000
,,,-0.01890400052,5.12000,4.92000
,,,-0.01889600046,5.12000,4.92000
,,,-0.01888800040,5.12000,4.92000
,,,-0.01888000034,5.12000,4.92000
,,,-0.01887200028,5.12000,4.92000
,,,-0.01886400022,5.12000,4.92000
,,,-0.01885600016,5.12000,4.92000
,,,-0.01884800009,5.12000,4.92000
,,,-0.01884000003,5.12000,4.92000
,,,-0.01883199997,5.12000,4.92000
,,,-0.01882399991,5.12000,4.92000
,,,-0.01881599985,5.12000,4.92000
,,,-0.01880799979,5.12000,4.92000
,,,-0.01879999973,5.12000,4.92000
,,,-0.01879199967,5.12000,4.92000
,,,-0.01878399961,5.12000,4.92000
,,,-0.01877599955,5.12000,4.92000
,,,-0.01876799949,5.12000,4.92000
,,,-0.01875999942,5.12000,4.92000
,,,-0.01875199936,5.12000,4.92000
,,,-0.01874399930,5.12000,4.92000
,,,-0.01873599924,5.12000,4.92000
,,,-0.01872799918,5.12000,4.92000
,,,-0.01871999912,5.12000,4.92000
,,,-0.01871199906,5.12000,4.92000
,,,-0.01870400086,5.12000,4.92000
,,,-0.01869600080,5.12000,4.92000
,,,-0.01868800074,5.16000,4.92000
,,,-0.01868000068,5.12000,4.92000
,,,-0.01867200062,5.12000,4.92000
,,,-0.01866400056,5.12000,4.96000
,,,-0.01865600049,5.12000,4.96000
,,,-0.01864800043,5.12000,4.96000
,,,-0.01864000037,5.12000,4.96000
,,,-0.01863200031,5.12000,4.96000
,,,-0.01862400025,5.12000,4.96000
,,,-0.01861600019,5.12000,4.96000
,,,-0.01860800013,5.12000,4.92000
,,,-0.01860000007,5.12000,4.92000
,,,-0.01859200001,5.12000,4.92000
,,,-0.01858399995,5.12000,4.92000
,,,-0.01857599989,5.12000,4.92000
,,,-0.01856799982,5.12000,4.92000
,,,-0.01855999976,5.12000,4.92000
,,,-0.01855199970,5.12000,4.92000
,,,-0.01854399964,5.12000,4.92000
,,,-0.01853599958,5.12000,4.92000
,,,-0.01852799952,5.12000,4.92000
,,,-0.01851999946,5.12000,4.96000
,,,-0.01851199940,5.12000,4.92000
,,,-0.01850399934,5.12000,4.92000
,,,-0.01849599928,5.12000,4.92000
,,,-0.01848799922,5.12000,4.92000
,,,-0.01847999915,5.12000,4.92000
,,,-0.01847199909,5.12000,4.92000
,,,-0.01846399903,5.12000,4.92000
,,,-0.01845600083,5.12000,4.92000
,,,-0.01844800077,5.12000,4.92000
,,,-0.01844000071,5.12000,4.92000
,,,-0.01843200065,5.12000,4.92000
,,,-0.01842400059,5.12000,4.92000
,,,-0.01841600053,5.12000,4.92000
,,,-0.01840800047,5.12000,4.92000
,,,-0.01840000041,5.12000,4.92000
,,,-0.01839200035,5.12000,4.92000
,,,-0.01838400029,5.12000,4.92000
,,,-0.01837600023,5.12000,4.96000
,,,-0.01836800016,5.12000,4.96000
,,,-0.01836000010,5.12000,4.96000
,,,-0.01835200004,5.12000,4.96000
,,,-0.01834399998,5.12000,4.96000
,,,-0.01833599992,5.12000,4.96000
,,,-0.01832799986,5.12000,4.96000
,,,-0.01831999980,5.12000,4.92000
,,,-0.01831199974,5.12000,4.92000
,,,-0.01830399968,5.12000,4.92000
,,,-0.01829599962,5.12000,4.92000
,,,-0.01828799956,5.12000,4.92000
,,,-0.01827999949,5.12000,4.92000
,,,-0.01827199943,5.12000,4.96000
,,,-0.01826399937,5.12000,4.96000
,,,-0.01825599931,5.12000,4.96000
,,,-0.01824799925,5.12000,4.96000
,,,-0.01823999919,5.12000,4.96000
,,,-0.01823199913,5.12000,4.96000
,,,-0.01822399907,5.12000,4.92000
,,,-0.01821600087,5.12000,4.92000
,,,-0.01820800081,5.12000,4.92000
,,,-0.01820000075,5.12000,4.92000
,,,-0.01819200069,5.12000,4.92000
,,,-0.01818400063,5.12000,4.92000
,,,-0.01817600057,5.12000,4.92000
,,,-0.01816800050,5.12000,4.92000
,,,-0.01816000044,5.12000,4.92000
,,,-0.01815200038,5.12000,4.92000
,,,-0.01814400032,5.12000,4.92000
,,,-0.01813600026,5.12000,4.92000
,,,-0.01812800020,5.12000,4.92000
,,,-0.01812000014,5.12000,4.92000
,,,-0.01811200008,5.12000,4.92000
,,,-0.01810400002,5.12000,4.92000
,,,-0.01809599996,5.12000,4.92000
,,,-0.01808799990,5.12000,4.92000
,,,-0.01807999983,5.12000,4.92000
,,,-0.01807199977,5.12000,4.92000
,,,-0.01806399971,5.12000,4.96000
,,,-0.01805599965,5.12000,4.96000
,,,-0.01804799959,5.12000,4.96000
,,,-0.01803999953,5.12000,4.96000
,,,-0.01803199947,5.12000,4.96000
,,,-0.01802399941,5.12000,4.96000
,,,-0.01801599935,5.12000,4.96000
,,,-0.01800799929,5.12000,4.96000
,,,-0.01799999923,5.12000,4.96000
,,,-0.01799199916,5.12000,4.96000
,,,-0.01798399910,5.12000,4.96000
,,,-0.01797599904,5.12000,4.96000
,,,-0.01796800084,5.12000,4.96000
,,,-0.01796000078,5.12000,4.96000
,,,-0.01795200072,5.12000,4.96000
,,,-0.01794400066,5.12000,4.96000
,,,-0.01793600060,5.16000,4.92000
,,,-0.01792800054,5.16000,4.92000
,,,-0.01792000048,5.16000,4.92000
,,,-0.01791200042,5.16000,4.92000
,,,-0.01790400036,5.16000,4.92000
,,,-0.01789600030,5.16000,4.92000
,,,-0.01788800023,5.16000,4.92000
,,,-0.01788000017,5.16000,4.96000
,,,-0.01787200011,5.16000,4.96000
,,,-0.01786400005,5.12000,4.96000
,,,-0.01785599999,5.12000,4.96000
,,,-0.01784799993,5.12000,4.96000
,,,-0.01783999987,5.12000,4.96000
,,,-0.01783199981,5.12000,4.96000
,,,-0.01782399975,5.12000,4.96000
,,,-0.01781599969,5.12000,4.92000
,,,-0.01780799963,5.12000,4.92000
,,,-0.01779999956,5.12000,4.96000
,,,-0.01779199950,5.12000,4.96000
,,,-0.01778399944,5.12000,4.96000
,,,-0.01777599938,5.12000,4.96000
,,,-0.01776799932,5.12000,4.96000
,,,-0.01775999926,5.12000,4.96000
,,,-0.01775199920,5.12000,4.96000
,,,-0.01774399914,5.12000,4.96000
,,,-0.01773599908,5.12000,4.96000
,,,-0.01772800088,5.12000,4.96000
,,,-0.01772000082,5.16000,4.96000
,,,-0.01771200076,5.16000,4.96000
,,,-0.01770400070,5.16000,4.96000
,,,-0.01769600064,5.16000,4.96000
,,,-0.01768800057,5.16000,4.96000
,,,-0.01768000051,5.16000,4.96000
,,,-0.01767200045,5.16000,4.96000
,,,-0.01766400039,5.12000,4.96000
,,,-0.01765600033,5.12000,4.96000
,,,-0.01764800027,5.12000,4.96000
,,,-0.01764000021,5.12000,4.96000
,,,-0.01763200015,5.12000,4.96000
,,,-0.01762400009,5.12000,4.96000
,,,-0.01761600003,5.12000,4.96000
,,,-0.01760799997,5.12000,4.96000
,,,-0.01759999990,5.12000,4.96000
,,,-0.01759199984,5.12000,4.96000
,,,-0.01758399978,5.12000,4.96000
,,,-0.01757599972,5.12000,4.96000
,,,-0.01756799966,5.12000,4.96000
,,,-0.01755999960,5.12000,4.96000
,,,-0.01755199954,5.12000,4.96000
,,,-0.01754399948,5.12000,4.96000
,,,-0.01753599942,5.12000,4.96000
,,,-0.01752799936,5.12000,4.96000
,,,-0.01751999930,5.12000,4.96000
,,,-0.01751199923,5.12000,4.96000
,,,-0.01750399917,5.12000,4.96000
,,,-0.01749599911,5.12000,4.96000
,,,-0.01748799905,5.12000,4.96000
,,,-0.01748000085,5.12000,4.96000
,,,-0.01747200079,5.12000,4.96000
,,,-0.01746400073,5.12000,4.96000
,,,-0.01745600067,5.12000,4.96000
,,,-0.01744800061,5.12000,4.96000
,,,-0.01744000055,5.12000,4.96000
,,,-0.01743200049,5.12000,4.96000
,,,-0.01742400043,5.12000,4.96000
,,,-0.01741600037,5.12000,4.96000
,,,-0.01740800031,5.12000,4.96000
,,,-0.01740000024,5.12000,4.96000
,,,-0.01739200018,5.12000,4.96000
,,,-0.01738400012,5.12000,4.96000
,,,-0.01737600006,5.12000,4.96000
,,,-0.01736800000,5.12000,4.96000
,,,-0.01735999994,5.12000,4.96000
,,,-0.01735199988,5.12000,4.96000
,,,-0.01734399982,5.12000,4.96000
,,,-0.01733599976,5.12000,4.96000
,,,-0.01732799970,5.12000,4.96000
,,,-0.01731999964,5.12000,4.96000
,,,-0.01731199957,5.12000,4.96000
,,,-0.01730399951,5.12000,4.96000
,,,-0.01729599945,5.12000,4.96000
,,,-0.01728799939,5.12000,4.96000
,,,-0.01727999933,5.12000,4.96000
,,,-0.01727199927,5.12000,4.96000
,,,-0.01726399921,5.12000,4.96000
,,,-0.01725599915,5.12000,4.96000
,,,-0.01724799909,5.12000,4.96000
,,,-0.01723999903,5.12000,4.96000
,,,-0.01723200083,5.12000,4.96000
,,,-0.01722400077,5.12000,4.96000
,,,-0.01721600071,5.12000,4.96000
,,,-0.01720800065,5.12000,4.96000
,,,-0.01720000058,5.12000,4.96000
,,,-0.01719200052,5.12000,4.96000
,,,-0.01718400046,5.12000,4.96000
,,,-0.01717600040,5.12000,4.96000
,,,-0.01716800034,5.12000,4.96000
,,,-0.01716000028,5.12000,4.96000
,,,-0.01715200022,5.12000,4.96000
,,,-0.01714400016,5.16000,4.96000
,,,-0.01713600010,5.16000,4.96000
,,,-0.01712800004,5.16000,4.96000
,,,-0.01711999997,5.16000,4.96000
,,,-0.01711199991,5.16000,4.96000
,,,-0.01710399985,5.16000,4.96000
,,,-0.01709599979,5.16000,4.96000
,,,-0.01708799973,5.16000,4.96000
,,,-0.01707999967,5.12000,4.96000
,,,-0.01707199961,5.12000,4.96000
,,,-0.01706399955,5.12000,4.96000
,,,-0.01705599949,5.12000,4.96000
,,,-0.01704799943,5.12000,4.96000
,,,-0.01703999937,5.12000,4.96000
,,,-0.01703199930,5.12000,4.96000
,,,-0.01702399924,5.12000,4.96000
,,,-0.01701599918,5.12000,4.96000
,,,-0.01700799912,5.12000,5.00000
,,,-0.01699999906,5.12000,5.00000
,,,-0.01699200086,5.12000,5.00000
,,,-0.01698400080,5.12000,5.00000
,,,-0.01697600074,5.12000,5.00000
,,,-0.01696800068,5.16000,5.00000
,,,-0.01696000062,5.16000,5.00000
,,,-0.01695200056,5.16000,5.00000
,,,-0.01694400050,5.16000,5.00000
,,,-0.01693600044,5.16000,4.96000
,,,-0.01692800038,5.16000,4.96000
,,,-0.01692000031,5.16000,4.96000
,,,-0.01691200025,5.12000,4.96000
,,,-0.01690400019,5.12000,4.96000
,,,-0.01689600013,5.12000,4.96000
,,,-0.01688800007,5.12000,4.96000
,,,-0.01688000001,5.12000,4.96000
,,,-0.01687199995,5.12000,4.96000
,,,-0.01686399989,5.12000,4.96000
,,,-0.01685599983,5.12000,4.96000
,,,-0.01684799977,5.12000,4.96000
,,,-0.01683999971,5.16000,4.96000
,,,-0.01683199964,5.16000,4.96000
,,,-0.01682399958,5.16000,4.96000
,,,-0.01681599952,5.16000,4.96000
,,,-0.01680799946,5.16000,5.00000
,,,-0.01679999940,5.12000,5.00000
,,,-0.01679199934,5.12000,5.00000
,,,-0.01678399928,5.12000,5.00000
,,,-0.01677599922,5.12000,5.00000
,,,-0.01676799916,5.12000,5.00000
,,,-0.01675999910,5.12000,5.00000
,,,-0.01675199904,5.12000,5.00000
,,,-0.01674400084,5.12000,5.00000
,,,-0.01673600078,5.12000,5.00000
,,,-0.01672800072,5.12000,5.00000
,,,-0.01672000065,5.12000,5.00000
,,,-0.01671200059,5.12000,5.00000
,,,-0.01670400053,5.12000,5.00000
,,,-0.01669600047,5.12000,5.00000
,,,-0.01668800041,5.12000,5.00000
,,,-0.01668000035,5.12000,5.00000
,,,-0.01667200029,5.12000,5.00000
,,,-0.01666400023,5.12000,5.00000
,,,-0.01665600017,5.12000,5.00000
,,,-0.01664800011,5.16000,5.00000
,,,-0.01664000005,5.16000,5.00000
,,,-0.01663199998,5.16000,5.00000
,,,-0.01662399992,5.12000,5.00000
,,,-0.01661599986,5.12000,5.00000
,,,-0.01660799980,5.12000,5.00000
,,,-0.01659999974,5.12000,5.00000
,,,-0.01659199968,5.12000,5.00000
,,,-0.01658399962,5.12000,5.00000
,,,-0.01657599956,5.12000,5.00000
,,,-0.01656799950,5.12000,5.00000
,,,-0.01655999944,5.12000,5.00000
,,,-0.01655199938,5.12000,5.00000
,,,-0.01654399931,5.12000,4.96000
,,,-0.01653599925,5.12000,4.96000
,,,-0.01652799919,5.12000,4.96000
,,,-0.01651999913,5.12000,5.00000
,,,-0.01651199907,5.12000,5.00000
,,,-0.01650400087,5.12000,5.00000
,,,-0.01649600081,5.12000,5.00000
,,,-0.01648800075,5.12000,5.00000
,,,-0.01648000069,5.12000,5.00000
,,,-0.01647200063,5.12000,5.00000
,,,-0.01646400057,5.12000,5.00000
,,,-0.01645600051,5.12000,5.00000
,,,-0.01644800045,5.12000,5.00000
,,,-0.01644000039,5.12000,5.00000
,,,-0.01643200032,5.12000,5.00000
,,,-0.01642400026,5.12000,5.00000
,,,-0.01641600020,5.12000,5.00000
,,,-0.01640800014,5.12000,5.00000
,,,-0.01640000008,5.12000,5.00000
,,,-0.01639200002,5.12000,5.00000
,,,-0.01638399996,5.12000,5.00000
,,,-0.01637599990,5.12000,5.00000
,,,-0.01636799984,5.12000,5.00000
,,,-0.01635999978,5.12000,5.00000
,,,-0.01635199971,5.12000,4.96000
,,,-0.01634399965,5.12000,4.96000
,,,-0.01633599959,5.12000,4.96000
,,,-0.01632799953,5.12000,4.96000
,,,-0.01631999947,5.12000,4.96000
,,,-0.01631199941,5.12000,4.96000
,,,-0.01630399935,5.12000,5.00000
,,,-0.01629599929,5.12000,5.00000
,,,-0.01628799923,5.12000,5.00000
,,,-0.01627999917,5.12000,5.00000
,,,-0.01627199911,5.12000,5.00000
,,,-0.01626399904,5.12000,5.00000
,,,-0.01625600085,5.12000,5.00000
,,,-0.01624800079,5.12000,5.00000
,,,-0.01624000072,5.12000,5.00000
,,,-0.01623200066,5.12000,4.96000
,,,-0.01622400060,5.16000,4.96000
,,,-0.01621600054,5.16000,4.96000
,,,-0.01620800048,5.16000,4.96000
,,,-0.01620000042,5.16000,5.00000
,,,-0.01619200036,5.16000,5.00000
,,,-0.01618400030,5.16000,5.00000
,,,-0.01617600024,5.16000,5.00000
,,,-0.01616800018,5.16000,5.00000
,,,-0.01616000012,5.16000,5.00000
,,,-0.01615200005,5.16000,5.00000
,,,-0.01614399999,5.16000,5.00000
,,,-0.01613599993,5.16000,5.00000
,,,-0.01612799987,5.16000,5.00000
,,,-0.01611999981,5.16000,5.00000
,,,-0.01611199975,5.12000,5.00000
,,,-0.01610399969,5.12000,5.00000
,,,-0.01609599963,5.12000,5.00000
,,,-0.01608799957,5.12000,5.00000
,,,-0.01607999951,5.12000,5.00000
,,,-0.01607199945,5.12000,5.00000
,,,-0.01606399938,5.12000,5.00000
,,,-0.01605599932,5.12000,5.00000
,,,-0.01604799926,5.12000,5.00000
,,,-0.01603999920,5.12000,5.00000
,,,-0.01603199914,5.12000,5.00000
,,,-0.01602399908,5.12000,5.00000
,,,-0.01601600088,5.12000,5.00000
,,,-0.01600800082,5.12000,5.00000
,,,-0.01600000076,5.12000,5.00000
,,,-0.01599200070,5.12000,5.00000
,,,-0.01598400064,5.12000,5.00000
,,,-0.01597600058,5.12000,5.00000
,,,-0.01596800052,5.12000,5.00000
,,,-0.01596000046,5.12000,5.00000
,,,-0.01595200039,5.12000,5.00000
,,,-0.01594400033,5.12000,5.00000
,,,-0.01593600027,5.12000,5.00000
,,,-0.01592800021,5.12000,5.00000
,,,-0.01592000015,5.12000,5.00000
,,,-0.01591200009,5.12000,5.00000
,,,-0.01590400003,5.12000,5.00000
,,,-0.01589599997,5.12000,5.00000
,,,-0.01588799991,5.12000,5.00000
,,,-0.01587999985,5.12000,5.00000
,,,-0.01587199979,5.12000,5.00000
,,,-0.01586399972,5.12000,5.00000
,,,-0.01585599966,5.12000,5.00000
,,,-0.01584799960,5.12000,5.00000
,,,-0.01583999954,5.12000,5.00000
,,,-0.01583199948,5.12000,5.00000
,,,-0.01582399942,5.12000,5.00000
,,,-0.01581599936,5.12000,5.00000
,,,-0.01580799930,5.12000,5.00000
,,,-0.01579999924,5.12000,5.00000
,,,-0.01579199918,5.12000,5.00000
,,,-0.01578399912,5.12000,5.00000
,,,-0.01577599905,5.12000,5.00000
,,,-0.01576800086,5.16000,5.00000
,,,-0.01576000080,5.12000,5.00000
,,,-0.01575200073,5.12000,5.00000
,,,-0.01574400067,5.12000,5.00000
,,,-0.01573600061,5.12000,5.00000
,,,-0.01572800055,5.12000,5.00000
,,,-0.01572000049,5.12000,5.00000
,,,-0.01571200043,5.12000,5.00000
,,,-0.01570400037,5.12000,5.00000
,,,-0.01569600031,5.12000,5.00000
,,,-0.01568800025,5.12000,5.00000
,,,-0.01568000019,5.12000,5.00000
,,,-0.01567200013,5.12000,5.00000
,,,-0.01566400006,5.12000,5.00000
,,,-0.01565600000,5.12000,5.00000
,,,-0.01564799994,5.12000,5.00000
,,,-0.01563999988,5.12000,5.00000
,,,-0.01563199982,5.12000,5.00000
,,,-0.01562399976,5.12000,5.00000
,,,-0.01561599970,5.12000,5.00000
,,,-0.01560799964,5.12000,5.00000
,,,-0.01559999958,5.12000,5.00000
,,,-0.01559199952,5.12000,5.00000
,,,-0.01558400039,5.12000,5.00000
,,,-0.01557600033,5.12000,5.00000
,,,-0.01556800026,5.12000,5.00000
,,,-0.01556000020,5.12000,5.00000
,,,-0.01555200014,5.12000,5.00000
,,,-0.01554400008,5.12000,5.00000
,,,-0.01553600002,5.12000,5.00000
,,,-0.01552799996,5.12000,5.00000
,,,-0.01551999990,5.12000,5.00000
,,,-0.01551199984,5.12000,5.00000
,,,-0.01550399978,5.12000,5.00000
,,,-0.01549599972,5.12000,5.00000
,,,-0.01548799966,5.12000,5.00000
,,,-0.01547999959,5.16000,5.00000
,,,-0.01547199953,5.16000,5.00000
,,,-0.01546400040,5.16000,5.00000
,,,-0.01545600034,5.16000,5.00000
,,,-0.01544800028,5.16000,5.00000
,,,-0.01544000022,5.16000,5.00000
,,,-0.01543200016,5.16000,5.00000
,,,-0.01542400010,5.16000,5.00000
,,,-0.01541600004,5.16000,5.00000
,,,-0.01540799998,5.12000,5.00000
,,,-0.01539999992,5.12000,5.00000
,,,-0.01539199986,5.12000,5.00000
,,,-0.01538399979,5.12000,5.00000
,,,-0.01537599973,5.12000,5.00000
,,,-0.01536799967,5.16000,5.00000
,,,-0.01535999961,5.16000,5.00000
,,,-0.01535199955,5.16000,5.00000
,,,-0.01534400042,5.16000,5.00000
,,,-0.01533600036,5.16000,5.00000
,,,-0.01532800030,5.16000,5.00000
,,,-0.01532000024,5.12000,5.00000
,,,-0.01531200018,5.12000,5.00000
,,,-0.01530400012,5.12000,5.00000
,,,-0.01529600006,5.12000,5.00000
,,,-0.01528800000,5.12000,5.00000
,,,-0.01527999993,5.12000,5.00000
,,,-0.01527199987,5.12000,5.00000
,,,-0.01526399981,5.12000,5.00000
,,,-0.01525599975,5.12000,5.00000
,,,-0.01524799969,5.12000,5.00000
,,,-0.01523999963,5.12000,5.00000
,,,-0.01523199957,5.12000,5.00000
,,,-0.01522399951,5.12000,5.00000
,,,-0.01521600038,5.12000,5.00000
,,,-0.01520800032,5.16000,5.00000
,,,-0.01520000026,5.16000,5.00000
,,,-0.01519200020,5.16000,5.00000
,,,-0.01518400013,5.16000,5.00000
,,,-0.01517600007,5.16000,5.00000
,,,-0.01516800001,5.16000,5.00000
,,,-0.01515999995,5.16000,5.00000
,,,-0.01515199989,5.16000,5.00000
,,,-0.01514399983,5.16000,5.00000
,,,-0.01513599977,5.12000,5.00000
,,,-0.01512799971,5.12000,5.00000
,,,-0.01511999965,5.12000,5.00000
,,,-0.01511199959,5.12000,5.00000
,,,-0.01510399953,5.12000,5.00000
,,,-0.01509600040,5.12000,5.00000
,,,-0.01508800033,5.12000,5.00000
,,,-0.01508000027,5.12000,5.00000
,,,-0.01507200021,5.12000,5.00000
,,,-0.01506400015,5.12000,5.00000
,,,-0.01505600009,5.12000,5.00000
,,,-0.01504800003,5.12000,5.00000
,,,-0.01503999997,5.12000,5.00000
,,,-0.01503199991,5.12000,5.00000
,,,-0.01502399985,5.12000,5.00000
,,,-0.01501599979,5.12000,5.00000
,,,-0.01500799973,5.12000,5.00000
,,,-0.01499999966,5.12000,5.00000
,,,-0.01499199960,5.12000,5.00000
,,,-0.01498399954,5.12000,5.00000
,,,-0.01497600041,5.12000,5.00000
,,,-0.01496800035,5.12000,5.00000
,,,-0.01496000029,5.12000,5.00000
,,,-0.01495200023,5.12000,5.00000
,,,-0.01494400017,5.12000,5.00000
,,,-0.01493600011,5.12000,5.00000
,,,-0.01492800005,5.12000,5.00000
,,,-0.01491999999,5.12000,5.00000
,,,-0.01491199993,5.12000,5.00000
,,,-0.01490399987,5.12000,5.00000
,,,-0.01489599980,5.12000,5.00000
,,,-0.01488799974,5.12000,5.00000
,,,-0.01487999968,5.12000,5.00000
,,,-0.01487199962,5.12000,5.00000
,,,-0.01486399956,5.12000,5.00000
,,,-0.01485599950,5.12000,5.00000
,,,-0.01484800037,5.12000,5.00000
,,,-0.01484000031,5.12000,5.00000
,,,-0.01483200025,5.12000,5.00000
,,,-0.01482400019,5.12000,5.00000
,,,-0.01481600013,5.12000,5.00000
,,,-0.01480800007,5.12000,5.00000
,,,-0.01480000000,5.12000,5.00000
,,,-0.01479199994,5.12000,5.00000
,,,-0.01478399988,5.12000,5.00000
,,,-0.01477599982,5.12000,5.00000
,,,-0.01476799976,5.12000,5.00000
,,,-0.01475999970,5.12000,5.00000
,,,-0.01475199964,5.12000,5.00000
,,,-0.01474399958,5.12000,5.00000
,,,-0.01473599952,5.12000,5.00000
,,,-0.01472800039,5.12000,5.00000
,,,-0.01472000033,5.12000,5.00000
,,,-0.01471200027,5.12000,5.00000
,,,-0.01470400020,5.12000,5.00000
,,,-0.01469600014,5.12000,5.00000
,,,-0.01468800008,5.12000,5.00000
,,,-0.01468000002,5.12000,5.00000
,,,-0.01467199996,5.12000,5.00000
,,,-0.01466399990,5.12000,5.00000
,,,-0.01465599984,5.12000,5.00000
,,,-0.01464799978,5.12000,5.00000
,,,-0.01463999972,5.12000,5.00000
,,,-0.01463199966,5.12000,5.00000
,,,-0.01462399960,5.12000,5.00000
,,,-0.01461599953,5.12000,5.00000
,,,-0.01460800041,5.12000,5.00000
,,,-0.01460000034,5.12000,5.00000
,,,-0.01459200028,5.12000,5.00000
,,,-0.01458400022,5.12000,5.00000
,,,-0.01457600016,5.12000,5.00000
,,,-0.01456800010,5.12000,5.00000
,,,-0.01456000004,5.12000,5.00000
,,,-0.01455199998,5.12000,5.00000
,,,-0.01454399992,5.12000,5.00000
,,,-0.01453599986,5.12000,5.00000
,,,-0.01452799980,5.12000,5.00000
,,,-0.01451999974,5.12000,5.00000
,,,-0.01451199967,5.12000,5.00000
,,,-0.01450399961,5.12000,5.00000
,,,-0.01449599955,5.12000,5.00000
,,,-0.01448800042,5.12000,5.00000
,,,-0.01448000036,5.12000,5.00000
,,,-0.01447200030,5.12000,5.00000
,,,-0.01446400024,5.12000,5.00000
,,,-0.01445600018,5.12000,5.00000
,,,-0.01444800012,5.12000,5.00000
,,,-0.01444000006,5.12000,5.00000
,,,-0.01443200000,5.12000,5.00000
,,,-0.01442399994,5.12000,5.00000
,,,-0.01441599987,5.12000,5.00000
,,,-0.01440799981,5.12000,5.00000
,,,-0.01439999975,5.12000,5.00000
,,,-0.01439199969,5.12000,5.00000
,,,-0.01438399963,5.12000,5.00000
,,,-0.01437599957,5.16000,5.00000
,,,-0.01436799951,5.16000,5.00000
,,,-0.01436000038,5.16000,5.00000
,,,-0.01435200032,5.16000,5.00000
,,,-0.01434400026,5.16000,5.00000
,,,-0.01433600020,5.16000,5.00000
,,,-0.01432800014,5.16000,5.00000
,,,-0.01432000007,5.12000,5.00000
,,,-0.01431200001,5.12000,5.00000
,,,-0.01430399995,5.12000,5.00000
,,,-0.01429599989,5.12000,5.00000
,,,-0.01428799983,5.12000,5.00000
,,,-0.01427999977,5.12000,5.00000
,,,-0.01427199971,5.12000,5.00000
,,,-0.01426399965,5.12000,5.00000
,,,-0.01425599959,5.12000,5.00000
,,,-0.01424799953,5.12000,5.00000
,,,-0.01424000040,5.12000,5.00000
,,,-0.01423200034,5.12000,5.00000
,,,-0.01422400028,5.12000,5.00000
,,,-0.01421600021,5.12000,5.00000
,,,-0.01420800015,5.12000,5.00000
,,,-0.01420000009,5.12000,5.00000
,,,-0.01419200003,5.12000,5.00000
,,,-0.01418399997,5.12000,5.00000
,,,-0.01417599991,5.12000,5.00000
,,,-0.01416799985,5.12000,5.00000
,,,-0.01415999979,5.12000,5.00000
,,,-0.01415199973,5.16000,5.00000
,,,-0.01414399967,5.12000,5.00000
,,,-0.01413599961,5.12000,5.00000
,,,-0.01412799954,5.12000,5.00000
,,,-0.01412000041,5.12000,5.00000
,,,-0.01411200035,5.12000,5.00000
,,,-0.01410400029,5.12000,5.00000
,,,-0.01409600023,5.12000,5.00000
,,,-0.01408800017,5.12000,5.00000
,,,-0.01408000011,5.12000,5.00000
,,,-0.01407200005,5.12000,5.00000
,,,-0.01406399999,5.12000,5.00000
,,,-0.01405599993,5.12000,5.00000
,,,-0.01404799987,5.12000,5.00000
,,,-0.01403999981,5.12000,5.00000
,,,-0.01403199974,5.12000,5.00000
,,,-0.01402399968,5.12000,5.00000
,,,-0.01401599962,5.12000,5.00000
,,,-0.01400799956,5.12000,5.00000
,,,-0.01399999950,5.12000,5.00000
,,,-0.01399200037,5.12000,5.00000
,,,-0.01398400031,5.12000,5.00000
,,,-0.01397600025,5.12000,5.00000
,,,-0.01396800019,5.12000,5.00000
,,,-0.01396000013,5.12000,5.00000
,,,-0.01395200007,5.12000,5.00000
,,,-0.01394400001,5.12000,5.00000
,,,-0.01393599994,5.16000,5.00000
,,,-0.01392799988,5.16000,5.00000
,,,-0.01391999982,5.16000,5.00000
,,,-0.01391199976,5.16000,5.00000
,,,-0.01390399970,5.16000,5.00000
,,,-0.01389599964,5.16000,5.00000
,,,-0.01388799958,5.16000,5.00000
,,,-0.01387999952,5.12000,5.00000
,,,-0.01387200039,5.12000,5.00000
,,,-0.01386400033,5.12000,5.00000
,,,-0.01385600027,5.12000,5.00000
,,,-0.01384800021,5.12000,5.00000
,,,-0.01384000015,5.12000,5.00000
,,,-0.01383200008,5.12000,5.00000
,,,-0.01382400002,5.12000,5.00000
,,,-0.01381599996,5.16000,5.00000
,,,-0.01380799990,5.16000,5.00000
,,,-0.01379999984,5.12000,5.00000
,,,-0.01379199978,5.12000,5.00000
,,,-0.01378399972,5.12000,5.00000
,,,-0.01377599966,5.12000,5.00000
,,,-0.01376799960,5.12000,5.00000
,,,-0.01375999954,5.12000,5.00000
,,,-0.01375200041,5.12000,5.00000
,,,-0.01374400035,5.12000,5.00000
,,,-0.01373600028,5.12000,5.00000
,,,-0.01372800022,5.12000,5.00000
,,,-0.01372000016,5.12000,5.00000
,,,-0.01371200010,5.12000,5.00000
,,,-0.01370400004,5.12000,5.00000
,,,-0.01369599998,5.12000,5.00000
,,,-0.01368799992,5.12000,5.00000
,,,-0.01367999986,5.12000,5.00000
,,,-0.01367199980,5.12000,5.00000
,,,-0.01366399974,5.16000,5.00000
,,,-0.01365599968,5.16000,5.00000
,,,-0.01364799961,5.16000,5.00000
,,,-0.01363999955,5.16000,5.00000
,,,-0.01363200042,5.16000,5.00000
,,,-0.01362400036,5.16000,5.00000
,,,-0.01361600030,5.16000,5.00000
,,,-0.01360800024,5.16000,5.00000
,,,-0.01360000018,5.12000,5.00000
,,,-0.01359200012,5.12000,5.00000
,,,-0.01358400006,5.12000,5.00000
,,,-0.01357600000,5.12000,5.00000
,,,-0.01356799994,5.12000,5.00000
,,,-0.01355999988,5.12000,5.00000
,,,-0.01355199981,5.12000,5.00000
,,,-0.01354399975,5.12000,5.00000
,,,-0.01353599969,5.12000,5.00000
,,,-0.01352799963,5.12000,5.00000
,,,-0.01351999957,5.12000,5.00000
,,,-0.01351199951,5.12000,5.00000
,,,-0.01350400038,5.12000,5.00000
,,,-0.01349600032,5.12000,5.00000
,,,-0.01348800026,5.12000,5.00000
,,,-0.01348000020,5.12000,5.00000
,,,-0.01347200014,5.12000,5.00000
,,,-0.01346400008,5.12000,5.00000
,,,-0.01345600002,5.12000,5.00000
,,,-0.01344799995,5.12000,5.00000
,,,-0.01343999989,5.12000,5.00000
,,,-0.01343199983,5.12000,5.00000
,,,-0.01342399977,5.12000,5.00000
,,,-0.01341599971,5.12000,5.00000
,,,-0.01340799965,5.12000,5.00000
,,,-0.01339999959,5.12000,5.00000
,,,-0.01339199953,5.12000,5.00000
,,,-0.01338400040,5.12000,5.00000
,,,-0.01337600034,5.12000,5.00000
,,,-0.01336800028,5.12000,5.00000
,,,-0.01336000022,5.12000,5.00000
,,,-0.01335200015,5.16000,5.00000
,,,-0.01334400009,5.16000,5.00000
,,,-0.01333600003,5.16000,5.00000
,,,-0.01332799997,5.16000,5.00000
,,,-0.01331999991,5.16000,5.00000
,,,-0.01331199985,5.16000,5.00000
,,,-0.01330399979,5.16000,5.00000
,,,-0.01329599973,5.16000,5.00000
,,,-0.01328799967,5.12000,5.00000
,,,-0.01327999961,5.12000,5.00000
,,,-0.01327199955,5.12000,5.00000
,,,-0.01326400042,5.12000,5.00000
,,,-0.01325600035,5.12000,5.00000
,,,-0.01324800029,5.12000,5.00000
,,,-0.01324000023,5.12000,5.00000
,,,-0.01323200017,5.12000,5.00000
,,,-0.01322400011,5.12000,5.00000
,,,-0.01321600005,5.12000,5.00000
,,,-0.01320799999,5.12000,5.00000
,,,-0.01319999993,5.12000,5.00000
,,,-0.01319199987,5.12000,5.00000
,,,-0.01318399981,5.12000,5.00000
,,,-0.01317599975,5.12000,5.00000
,,,-0.01316799968,5.12000,5.00000
,,,-0.01315999962,5.12000,5.00000
,,,-0.01315199956,5.12000,5.00000
,,,-0.01314399950,5.12000,5.00000
,,,-0.01313600037,5.12000,5.00000
,,,-0.01312800031,5.12000,5.00000
,,,-0.01312000025,5.12000,5.00000
,,,-0.01311200019,5.12000,5.00000
,,,-0.01310400013,5.12000,5.00000
,,,-0.01309600007,5.12000,5.00000
,,,-0.01308800001,5.12000,5.00000
,,,-0.01307999995,5.12000,5.00000
,,,-0.01307199989,5.12000,5.00000
,,,-0.01306399982,5.12000,5.00000
,,,-0.01305599976,5.12000,5.00000
,,,-0.01304799970,5.12000,5.00000
,,,-0.01303999964,5.12000,5.00000
,,,-0.01303199958,5.12000,5.00000
,,,-0.01302399952,5.12000,5.00000
,,,-0.01301600039,5.12000,5.00000
,,,-0.01300800033,5.12000,4.96000
,,,-0.01300000027,5.12000,5.00000
,,,-0.01299200021,5.12000,5.00000
,,,-0.01298400015,5.12000,5.00000
,,,-0.01297600009,5.12000,5.00000
,,,-0.01296800002,5.12000,5.00000
,,,-0.01295999996,5.12000,5.00000
,,,-0.01295199990,5.12000,5.00000
,,,-0.01294399984,5.12000,5.00000
,,,-0.01293599978,5.12000,5.00000
,,,-0.01292799972,5.12000,5.00000
,,,-0.01291999966,5.12000,5.00000
,,,-0.01291199960,5.12000,5.00000
,,,-0.01290399954,5.12000,5.00000
,,,-0.01289600041,5.12000,5.00000
,,,-0.01288800035,5.12000,5.00000
,,,-0.01288000029,5.12000,5.00000
,,,-0.01287200022,5.12000,5.00000
,,,-0.01286400016,5.12000,5.00000
,,,-0.01285600010,5.12000,5.00000
,,,-0.01284800004,5.12000,5.00000
,,,-0.01283999998,5.12000,5.00000
,,,-0.01283199992,5.12000,5.00000
,,,-0.01282399986,5.12000,5.00000
,,,-0.01281599980,5.12000,4.96000
,,,-0.01280799974,5.12000,4.96000
,,,-0.01279999968,5.12000,4.96000
,,,-0.01279199962,5.12000,4.96000
,,,-0.01278399955,5.12000,4.96000
,,,-0.01277600043,5.12000,5.00000
,,,-0.01276800036,5.12000,5.00000
,,,-0.01276000030,5.12000,5.00000
,,,-0.01275200024,5.12000,5.00000
,,,-0.01274400018,5.12000,5.00000
,,,-0.01273600012,5.12000,5.00000
,,,-0.01272800006,5.12000,5.00000
,,,-0.01272000000,5.12000,5.00000
,,,-0.01271199994,5.12000,5.00000
,,,-0.01270399988,5.12000,5.00000
,,,-0.01269599982,5.12000,4.96000
,,,-0.01268799976,5.16000,4.96000
,,,-0.01267999969,5.16000,4.96000
,,,-0.01267199963,5.16000,4.96000
,,,-0.01266399957,5.16000,4.96000
,,,-0.01265599951,5.16000,4.96000
,,,-0.01264800038,5.16000,4.96000
,,,-0.01264000032,5.12000,4.96000
,,,-0.01263200026,5.12000,4.96000
,,,-0.01262400020,5.12000,4.96000
,,,-0.01261600014,5.12000,4.96000
,,,-0.01260800008,5.12000,4.96000
,,,-0.01260000002,5.12000,4.96000
,,,-0.01259199996,5.16000,4.96000
,,,-0.01258399989,5.16000,4.96000
,,,-0.01257599983,5.16000,4.96000
,,,-0.01256799977,5.16000,4.96000
,,,-0.01255999971,5.16000,4.96000
,,,-0.01255199965,5.16000,4.96000
,,,-0.01254399959,5.16000,4.96000
,,,-0.01253599953,5.16000,4.96000
,,,-0.01252800040,5.16000,4.96000
,,,-0.01252000034,5.16000,4.96000
,,,-0.01251200028,5.16000,4.96000
,,,-0.01250400022,5.16000,4.96000
,,,-0.01249600016,5.16000,4.96000
,,,-0.01248800009,5.16000,4.96000
,,,-0.01248000003,5.16000,4.96000
,,,-0.01247199997,5.12000,4.96000
,,,-0.01246399991,5.12000,4.96000
,,,-0.01245599985,5.12000,4.96000
,,,-0.01244799979,5.12000,5.00000
,,,-0.01243999973,5.12000,5.00000
,,,-0.01243199967,5.12000,5.00000
,,,-0.01242399961,5.12000,5.00000
,,,-0.01241599955,5.16000,5.00000
,,,-0.01240800042,5.16000,5.00000
,,,-0.01240000036,5.16000,5.00000
,,,-0.01239200030,5.16000,5.00000
,,,-0.01238400023,5.16000,4.96000
,,,-0.01237600017,5.16000,4.96000
,,,-0.01236800011,5.16000,4.96000
,,,-0.01236000005,5.16000,4.96000
,,,-0.01235199999,5.16000,4.96000
,,,-0.01234399993,5.16000,4.96000
,,,-0.01233599987,5.16000,4.96000
,,,-0.01232799981,5.16000,4.96000
,,,-0.01231999975,5.16000,4.96000
,,,-0.01231199969,5.16000,4.96000
,,,-0.01230399963,5.16000,4.96000
,,,-0.01229599956,5.16000,4.96000
,,,-0.01228800043,5.16000,4.96000
,,,-0.01228000037,5.16000,4.96000
,,,-0.01227200031,5.16000,5.00000
,,,-0.01226400025,5.16000,5.00000
,,,-0.01225600019,5.16000,5.00000
,,,-0.01224800013,5.16000,5.00000
,,,-0.01224000007,5.16000,5.00000
,,,-0.01223200001,5.12000,4.96000
,,,-0.01222399995,5.12000,4.96000
,,,-0.01221599989,5.12000,4.96000
,,,-0.01220799983,5.12000,4.96000
,,,-0.01219999976,5.12000,4.96000
,,,-0.01219199970,5.12000,4.96000
,,,-0.01218399964,5.12000,4.96000
,,,-0.01217599958,5.12000,4.96000
,,,-0.01216799952,5.12000,4.96000
,,,-0.01216000039,5.12000,4.96000
,,,-0.01215200033,5.12000,4.96000
,,,-0.01214400027,5.12000,4.96000
,,,-0.01213600021,5.12000,4.96000
,,,-0.01212800015,5.12000,4.96000
,,,-0.01212000009,5.12000,4.96000
,,,-0.01211200003,5.12000,4.96000
,,,-0.01210399996,5.12000,4.96000
,,,-0.01209599990,5.12000,4.96000
,,,-0.01208799984,5.12000,4.96000
,,,-0.01207999978,5.12000,4.96000
,,,-0.01207199972,5.12000,4.96000
,,,-0.01206399966,5.12000,4.96000
,,,-0.01205599960,5.12000,4.96000
,,,-0.01204799954,5.12000,4.96000
,,,-0.01204000041,5.12000,4.96000
,,,-0.01203200035,5.12000,4.96000
,,,-0.01202400029,5.12000,4.96000
,,,-0.01201600023,5.12000,4.96000
,,,-0.01200800017,5.12000,4.96000
,,,-0.01200000010,5.12000,4.96000
,,,-0.01199200004,5.12000,4.96000
,,,-0.01198399998,5.12000,4.96000
,,,-0.01197599992,5.12000,4.96000
,,,-0.01196799986,5.12000,4.96000
,,,-0.01195999980,5.12000,4.96000
,,,-0.01195199974,5.12000,4.96000
,,,-0.01194399968,5.12000,4.96000
,,,-0.01193599962,5.12000,4.96000
,,,-0.01192799956,5.12000,4.96000
,,,-0.01192000043,5.12000,4.96000
,,,-0.01191200037,5.12000,4.96000
,,,-0.01190400030,5.12000,4.96000
,,,-0.01189600024,5.12000,4.96000
,,,-0.01188800018,5.12000,4.96000
,,,-0.01188000012,5.12000,4.96000
,,,-0.01187200006,5.12000,4.96000
,,,-0.01186400000,5.12000,4.96000
,,,-0.01185599994,5.16000,4.96000
