Record Length,20480,,Source,CH1,CH2
Sample Interval,CH1:0.0000080000000 CH2:0.0000080000000,,Second,Volt,Volt
Vertical Units,CH1:V CH2:V,,-0.08191999793,5.12000,4.36000
Vertical Scale,CH1:1.00 CH2:1.00,,-0.08191200346,5.08000,4.36000
Vertical Offset,CH1:-3.02000 CH2:-3.00000,,-0.08190400153,5.12000,4.36000
Horizontal Units,s,,-0.08189599961,5.12000,4.36000
Horizontal Scale,0.0049999999,,-0.08188799769,5.12000,4.36000
Model Number,SDS1072CML+,,-0.08188000321,5.12000,4.36000
Serial Number,SDS10BA3163350,,-0.08187200129,5.12000,4.36000
Software Version,6.01.01.16,,-0.08186399937,5.08000,4.36000
,,,-0.08185599744,5.12000,4.36000
,,,-0.08184800297,5.08000,4.36000
,,,-0.08184000105,5.12000,4.36000
,,,-0.08183199912,5.12000,4.36000
,,,-0.08182399720,5.12000,4.36000
,,,-0.08181600273,5.12000,4.36000
,,,-0.08180800080,5.12000,4.36000
,,,-0.08179999888,5.12000,4.36000
,,,-0.08179199696,5.12000,4.36000
,,,-0.08178400248,5.12000,4.36000
,,,-0.08177600056,5.12000,4.36000
,,,-0.08176799864,5.12000,4.36000
,,,-0.08175999671,5.08000,4.36000
,,,-0.08175200224,5.08000,4.36000
,,,-0.08174400032,5.12000,4.36000
,,,-0.08173599839,5.08000,4.36000
,,,-0.08172799647,5.12000,4.36000
,,,-0.08172000200,5.12000,4.36000
,,,-0.08171200007,5.08000,4.36000
,,,-0.08170399815,5.12000,4.36000
,,,-0.08169599622,5.12000,4.36000
,,,-0.08168800175,5.12000,4.40000
,,,-0.08167999983,5.12000,4.40000
,,,-0.08167199790,5.12000,4.36000
,,,-0.08166400343,5.12000,4.36000
,,,-0.08165600151,5.12000,4.36000
,,,-0.08164799958,5.08000,4.36000
,,,-0.08163999766,5.08000,4.36000
,,,-0.08163200319,5.12000,4.36000
,,,-0.08162400126,5.08000,4.36000
,,,-0.08161599934,5.08000,4.36000
,,,-0.08160799742,5.12000,4.36000
,,,-0.08160000294,5.12000,4.36000
,,,-0.08159200102,5.12000,4.36000
,,,-0.08158399910,5.12000,4.36000
,,,-0.08157599717,5.12000,4.36000
,,,-0.08156800270,5.12000,4.36000
,,,-0.08156000078,5.12000,4.40000
,,,-0.08155199885,5.08000,4.36000
,,,-0.08154399693,5.12000,4.36000
,,,-0.08153600246,5.12000,4.36000
,,,-0.08152800053,5.08000,4.36000
,,,-0.08151999861,5.12000,4.36000
,,,-0.08151199669,5.08000,4.36000
,,,-0.08150400221,5.08000,4.36000
,,,-0.08149600029,5.08000,4.36000
,,,-0.08148799837,5.08000,4.36000
,,,-0.08147999644,5.08000,4.36000
,,,-0.08147200197,5.08000,4.36000
,,,-0.08146400005,5.12000,4.36000
,,,-0.08145599812,5.12000,4.36000
,,,-0.08144799620,5.12000,4.36000
,,,-0.08144000173,5.08000,4.36000
,,,-0.08143199980,5.12000,4.32000
,,,-0.08142399788,5.08000,4.36000
,,,-0.08141600341,5.08000,4.36000
,,,-0.08140800148,5.08000,4.36000
,,,-0.08139999956,5.08000,4.36000
,,,-0.08139199764,5.12000,4.36000
,,,-0.08138400316,5.08000,4.36000
,,,-0.08137600124,5.12000,4.36000
,,,-0.08136799932,5.12000,4.36000
,,,-0.08135999739,5.12000,4.36000
,,,-0.08135200292,5.08000,4.36000
,,,-0.08134400100,5.08000,4.36000
,,,-0.08133599907,5.08000,4.36000
,,,-0.08132799715,5.12000,4.36000
,,,-0.08132000268,5.12000,4.36000
,,,-0.08131200075,5.08000,4.36000
,,,-0.08130399883,5.12000,4.36000
,,,-0.08129599690,5.08000,4.36000
,,,-0.08128800243,5.12000,4.36000
,,,-0.08128000051,5.12000,4.36000
,,,-0.08127199858,5.12000,4.36000
,,,-0.08126399666,5.08000,4.36000
,,,-0.08125600219,5.08000,4.36000
,,,-0.08124800026,5.12000,4.36000
,,,-0.08123999834,5.12000,4.36000
,,,-0.08123199642,5.08000,4.36000
,,,-0.08122400194,5.12000,4.40000
,,,-0.08121600002,5.12000,4.36000
,,,-0.08120799810,5.12000,4.36000
,,,-0.08119999617,5.08000,4.36000
,,,-0.08119200170,5.12000,4.36000
,,,-0.08118399978,5.12000,4.36000
,,,-0.08117599785,5.08000,4.36000
,,,-0.08116800338,5.12000,4.36000
,,,-0.08116000146,5.12000,4.36000
,,,-0.08115199953,5.08000,4.36000
,,,-0.08114399761,5.12000,4.36000
,,,-0.08113600314,5.08000,4.36000
,,,-0.08112800121,5.12000,4.36000
,,,-0.08111999929,5.12000,4.36000
,,,-0.08111199737,5.12000,4.36000
,,,-0.08110400289,5.12000,4.36000
,,,-0.08109600097,5.08000,4.36000
,,,-0.08108799905,5.12000,4.36000
,,,-0.08107999712,5.08000,4.36000
,,,-0.08107200265,5.08000,4.36000
,,,-0.08106400073,5.12000,4.36000
,,,-0.08105599880,5.12000,4.36000
,,,-0.08104799688,5.12000,4.36000
,,,-0.08104000241,5.08000,4.36000
,,,-0.08103200048,5.12000,4.36000
,,,-0.08102399856,5.08000,4.36000
,,,-0.08101599663,5.12000,4.36000
,,,-0.08100800216,5.08000,4.36000
,,,-0.08100000024,5.08000,4.36000
,,,-0.08099199831,5.12000,4.36000
,,,-0.08098399639,5.08000,4.36000
,,,-0.08097600192,5.12000,4.36000
,,,-0.08096799999,5.08000,4.36000
,,,-0.08095999807,5.12000,4.36000
,,,-0.08095199615,5.08000,4.36000
,,,-0.08094400167,5.12000,4.36000
,,,-0.08093599975,5.12000,4.36000
,,,-0.08092799783,5.12000,4.36000
,,,-0.08092000335,5.12000,4.36000
,,,-0.08091200143,5.12000,4.36000
,,,-0.08090399951,5.08000,4.36000
,,,-0.08089599758,5.12000,4.36000
,,,-0.08088800311,5.08000,4.36000
,,,-0.08088000119,5.08000,4.36000
,,,-0.08087199926,5.12000,4.36000
,,,-0.08086399734,5.08000,4.36000
,,,-0.08085600287,5.12000,4.36000
,,,-0.08084800094,5.12000,4.36000
,,,-0.08083999902,5.12000,4.36000
,,,-0.08083199710,5.12000,4.36000
,,,-0.08082400262,5.12000,4.36000
,,,-0.08081600070,5.12000,4.36000
,,,-0.08080799878,5.08000,4.36000
,,,-0.08079999685,5.12000,4.40000
,,,-0.08079200238,5.12000,4.36000
,,,-0.08078400046,5.08000,4.36000
,,,-0.08077599853,5.12000,4.36000
,,,-0.08076799661,5.08000,4.36000
,,,-0.08076000214,5.12000,4.36000
,,,-0.08075200021,5.08000,4.36000
,,,-0.08074399829,5.08000,4.36000
,,,-0.08073599637,5.12000,4.40000
,,,-0.08072800189,5.12000,4.36000
,,,-0.08071999997,5.08000,4.36000
,,,-0.08071199805,5.12000,4.36000
,,,-0.08070399612,5.12000,4.36000
,,,-0.08069600165,5.12000,4.36000
,,,-0.08068799973,5.12000,4.36000
,,,-0.08067999780,5.12000,4.36000
,,,-0.08067200333,5.08000,4.36000
,,,-0.08066400141,5.08000,4.36000
,,,-0.08065599948,5.12000,4.36000
,,,-0.08064799756,5.08000,4.36000
,,,-0.08064000309,5.12000,4.36000
,,,-0.08063200116,5.12000,4.36000
,,,-0.08062399924,5.12000,4.36000
,,,-0.08061599731,5.12000,4.36000
,,,-0.08060800284,5.08000,4.36000
,,,-0.08060000092,5.12000,4.36000
,,,-0.08059199899,5.12000,4.36000
,,,-0.08058399707,5.08000,4.36000
,,,-0.08057600260,5.12000,4.36000
,,,-0.08056800067,5.08000,4.36000
,,,-0.08055999875,5.12000,4.36000
,,,-0.08055199683,5.12000,4.36000
,,,-0.08054400235,5.12000,4.36000
,,,-0.08053600043,5.12000,4.36000
,,,-0.08052799851,5.08000,4.36000
,,,-0.08051999658,5.12000,4.36000
,,,-0.08051200211,5.08000,4.36000
,,,-0.08050400019,5.12000,4.36000
,,,-0.08049599826,5.08000,4.36000
,,,-0.08048799634,5.08000,4.36000
,,,-0.08048000187,5.12000,4.40000
,,,-0.08047199994,5.12000,4.36000
,,,-0.08046399802,5.12000,4.36000
,,,-0.08045599610,5.12000,4.36000
,,,-0.08044800162,5.08000,4.36000
,,,-0.08043999970,5.12000,4.36000
,,,-0.08043199778,5.12000,4.36000
,,,-0.08042400330,5.12000,4.36000
,,,-0.08041600138,5.12000,4.40000
,,,-0.08040799946,5.12000,4.36000
,,,-0.08039999753,5.12000,4.36000
,,,-0.08039200306,5.12000,4.36000
,,,-0.08038400114,5.12000,4.36000
,,,-0.08037599921,5.12000,4.36000
,,,-0.08036799729,5.12000,4.36000
,,,-0.08036000282,5.12000,4.40000
,,,-0.08035200089,5.12000,4.36000
,,,-0.08034399897,5.12000,4.36000
,,,-0.08033599705,5.12000,4.36000
,,,-0.08032800257,5.08000,4.36000
,,,-0.08032000065,5.12000,4.36000
,,,-0.08031199872,5.12000,4.36000
,,,-0.08030399680,5.12000,4.36000
,,,-0.08029600233,5.08000,4.36000
,,,-0.08028800040,5.12000,4.36000
,,,-0.08027999848,5.12000,4.36000
,,,-0.08027199656,5.12000,4.36000
,,,-0.08026400208,5.08000,4.36000
,,,-0.08025600016,5.12000,4.36000
,,,-0.08024799824,5.08000,4.36000
,,,-0.08023999631,5.08000,4.36000
,,,-0.08023200184,5.12000,4.36000
,,,-0.08022399992,5.12000,4.36000
,,,-0.08021599799,5.08000,4.36000
,,,-0.08020800352,5.08000,4.36000
,,,-0.08020000160,5.12000,4.36000
,,,-0.08019199967,5.12000,4.36000
,,,-0.08018399775,5.08000,4.36000
,,,-0.08017600328,5.08000,4.36000
,,,-0.08016800135,5.12000,4.36000
,,,-0.08015999943,5.12000,4.36000
,,,-0.08015199751,5.12000,4.36000
,,,-0.08014400303,5.12000,4.36000
,,,-0.08013600111,5.12000,4.36000
,,,-0.08012799919,5.12000,4.36000
,,,-0.08011999726,5.08000,4.36000
,,,-0.08011200279,5.12000,4.36000
,,,-0.08010400087,5.08000,4.36000
,,,-0.08009599894,5.12000,4.36000
,,,-0.08008799702,5.08000,4.36000
,,,-0.08008000255,5.08000,4.36000
,,,-0.08007200062,5.08000,4.36000
,,,-0.08006399870,5.08000,4.36000
,,,-0.08005599678,5.12000,4.36000
,,,-0.08004800230,5.12000,4.36000
,,,-0.08004000038,5.12000,4.36000
,,,-0.08003199846,5.12000,4.36000
,,,-0.08002399653,5.12000,4.36000
,,,-0.08001600206,5.12000,4.36000
,,,-0.08000800014,5.12000,4.40000
,,,-0.07999999821,5.12000,4.36000
,,,-0.07999199629,5.12000,4.36000
,,,-0.07998400182,5.08000,4.36000
,,,-0.07997599989,5.08000,4.36000
,,,-0.07996799797,5.08000,4.36000
,,,-0.07996000350,5.12000,4.36000
,,,-0.07995200157,5.12000,4.36000
,,,-0.07994399965,5.08000,4.36000
,,,-0.07993599772,5.08000,4.40000
,,,-0.07992800325,5.12000,4.40000
,,,-0.07992000133,5.12000,4.36000
,,,-0.07991199940,5.12000,4.36000
,,,-0.07990399748,5.12000,4.40000
,,,-0.07989600301,5.12000,4.40000
,,,-0.07988800108,5.12000,4.36000
,,,-0.07987999916,5.12000,4.36000
,,,-0.07987199724,5.08000,4.36000
,,,-0.07986400276,5.08000,4.36000
,,,-0.07985600084,5.12000,4.36000
,,,-0.07984799892,5.08000,4.36000
,,,-0.07983999699,5.12000,4.36000
,,,-0.07983200252,5.12000,4.36000
,,,-0.07982400060,5.12000,4.36000
,,,-0.07981599867,5.08000,4.36000
,,,-0.07980799675,5.12000,4.40000
,,,-0.07980000228,5.12000,4.36000
,,,-0.07979200035,5.12000,4.36000
,,,-0.07978399843,5.12000,4.36000
,,,-0.07977599651,5.08000,4.36000
,,,-0.07976800203,5.12000,4.36000
,,,-0.07976000011,5.12000,4.36000
,,,-0.07975199819,5.08000,4.40000
,,,-0.07974399626,5.12000,4.36000
,,,-0.07973600179,5.08000,4.36000
,,,-0.07972799987,5.12000,4.36000
,,,-0.07971999794,5.12000,4.40000
,,,-0.07971200347,5.12000,4.40000
,,,-0.07970400155,5.12000,4.36000
,,,-0.07969599962,5.12000,4.40000
,,,-0.07968799770,5.12000,4.36000
,,,-0.07968000323,5.12000,4.36000
,,,-0.07967200130,5.12000,4.36000
,,,-0.07966399938,5.12000,4.36000
,,,-0.07965599746,5.08000,4.36000
,,,-0.07964800298,5.12000,4.36000
,,,-0.07964000106,5.12000,4.36000
,,,-0.07963199914,5.12000,4.36000
,,,-0.07962399721,5.12000,4.40000
,,,-0.07961600274,5.08000,4.36000
,,,-0.07960800081,5.12000,4.40000
,,,-0.07959999889,5.12000,4.40000
,,,-0.07959199697,5.12000,4.40000
,,,-0.07958400249,5.12000,4.36000
,,,-0.07957600057,5.12000,4.36000
,,,-0.07956799865,5.08000,4.40000
,,,-0.07955999672,5.12000,4.40000
,,,-0.07955200225,5.08000,4.36000
,,,-0.07954400033,5.12000,4.36000
,,,-0.07953599840,5.12000,4.40000
,,,-0.07952799648,5.12000,4.36000
,,,-0.07952000201,5.12000,4.36000
,,,-0.07951200008,5.08000,4.36000
,,,-0.07950399816,5.12000,4.36000
,,,-0.07949599624,5.12000,4.36000
,,,-0.07948800176,5.08000,4.36000
,,,-0.07947999984,5.08000,4.40000
,,,-0.07947199792,5.12000,4.36000
,,,-0.07946400344,5.08000,4.40000
,,,-0.07945600152,5.12000,4.40000
,,,-0.07944799960,5.08000,4.36000
,,,-0.07943999767,5.12000,4.40000
,,,-0.07943200320,5.12000,4.40000
,,,-0.07942400128,5.12000,4.36000
,,,-0.07941599935,5.12000,4.36000
,,,-0.07940799743,5.12000,4.36000
,,,-0.07940000296,5.12000,4.40000
,,,-0.07939200103,5.12000,4.40000
,,,-0.07938399911,5.12000,4.40000
,,,-0.07937599719,5.12000,4.36000
,,,-0.07936800271,5.12000,4.40000
,,,-0.07936000079,5.12000,4.40000
,,,-0.07935199887,5.08000,4.36000
,,,-0.07934399694,5.12000,4.40000
,,,-0.07933600247,5.12000,4.40000
,,,-0.07932800055,5.12000,4.36000
,,,-0.07931999862,5.12000,4.36000
,,,-0.07931199670,5.12000,4.40000
,,,-0.07930400223,5.12000,4.40000
,,,-0.07929600030,5.12000,4.40000
,,,-0.07928799838,5.12000,4.40000
,,,-0.07927999645,5.08000,4.36000
,,,-0.07927200198,5.12000,4.36000
,,,-0.07926400006,5.08000,4.40000
,,,-0.07925599813,5.12000,4.40000
,,,-0.07924799621,5.12000,4.36000
,,,-0.07924000174,5.12000,4.40000
,,,-0.07923199981,5.12000,4.36000
,,,-0.07922399789,5.08000,4.36000
,,,-0.07921600342,5.08000,4.40000
,,,-0.07920800149,5.12000,4.40000
,,,-0.07919999957,5.12000,4.40000
,,,-0.07919199765,5.08000,4.40000
,,,-0.07918400317,5.12000,4.36000
,,,-0.07917600125,5.08000,4.40000
,,,-0.07916799933,5.12000,4.40000
,,,-0.07915999740,5.08000,4.40000
,,,-0.07915200293,5.12000,4.40000
,,,-0.07914400101,5.12000,4.36000
,,,-0.07913599908,5.12000,4.36000
,,,-0.07912799716,5.12000,4.44000
,,,-0.07912000269,5.12000,4.40000
,,,-0.07911200076,5.12000,4.40000
,,,-0.07910399884,5.12000,4.40000
,,,-0.07909599692,5.12000,4.40000
,,,-0.07908800244,5.12000,4.40000
,,,-0.07908000052,5.12000,4.40000
,,,-0.07907199860,5.12000,4.40000
,,,-0.07906399667,5.12000,4.40000
,,,-0.07905600220,5.12000,4.44000
,,,-0.07904800028,5.08000,4.40000
,,,-0.07903999835,5.12000,4.40000
,,,-0.07903199643,5.12000,4.36000
,,,-0.07902400196,5.12000,4.40000
,,,-0.07901600003,5.12000,4.40000
,,,-0.07900799811,5.12000,4.40000
,,,-0.07899999619,5.08000,4.40000
,,,-0.07899200171,5.12000,4.40000
,,,-0.07898399979,5.12000,4.40000
,,,-0.07897599787,5.12000,4.40000
,,,-0.07896800339,5.12000,4.40000
,,,-0.07896000147,5.08000,4.40000
,,,-0.07895199955,5.08000,4.40000
,,,-0.07894399762,5.12000,4.40000
,,,-0.07893600315,5.12000,4.40000
,,,-0.07892800122,5.12000,4.40000
,,,-0.07891999930,5.12000,4.40000
,,,-0.07891199738,5.08000,4.40000
,,,-0.07890400290,5.08000,4.40000
,,,-0.07889600098,5.12000,4.40000
,,,-0.07888799906,5.12000,4.40000
,,,-0.07887999713,5.12000,4.40000
,,,-0.07887200266,5.12000,4.40000
,,,-0.07886400074,5.12000,4.40000
,,,-0.07885599881,5.12000,4.36000
,,,-0.07884799689,5.12000,4.40000
,,,-0.07884000242,5.08000,4.40000
,,,-0.07883200049,5.12000,4.44000
,,,-0.07882399857,5.12000,4.40000
,,,-0.07881599665,5.12000,4.40000
,,,-0.07880800217,5.12000,4.40000
,,,-0.07880000025,5.12000,4.40000
,,,-0.07879199833,5.12000,4.40000
,,,-0.07878399640,5.12000,4.40000
,,,-0.07877600193,5.12000,4.40000
,,,-0.07876800001,5.12000,4.40000
,,,-0.07875999808,5.12000,4.40000
,,,-0.07875199616,5.08000,4.40000
,,,-0.07874400169,5.08000,4.40000
,,,-0.07873599976,5.12000,4.40000
,,,-0.07872799784,5.12000,4.40000
,,,-0.07872000337,5.08000,4.40000
,,,-0.07871200144,5.08000,4.40000
,,,-0.07870399952,5.12000,4.40000
,,,-0.07869599760,5.08000,4.40000
,,,-0.07868800312,5.08000,4.40000
,,,-0.07868000120,5.12000,4.40000
,,,-0.07867199928,5.12000,4.40000
,,,-0.07866399735,5.12000,4.40000
,,,-0.07865600288,5.12000,4.40000
,,,-0.07864800096,5.12000,4.40000
,,,-0.07863999903,5.12000,4.40000
,,,-0.07863199711,5.12000,4.40000
,,,-0.07862400264,5.12000,4.44000
,,,-0.07861600071,5.12000,4.44000
,,,-0.07860799879,5.08000,4.40000
,,,-0.07859999686,5.12000,4.40000
,,,-0.07859200239,5.12000,4.40000
,,,-0.07858400047,5.12000,4.40000
,,,-0.07857599854,5.08000,4.40000
,,,-0.07856799662,5.12000,4.40000
,,,-0.07856000215,5.08000,4.40000
,,,-0.07855200022,5.12000,4.40000
,,,-0.07854399830,5.08000,4.40000
,,,-0.07853599638,5.12000,4.40000
,,,-0.07852800190,5.12000,4.44000
,,,-0.07851999998,5.12000,4.44000
,,,-0.07851199806,5.08000,4.40000
,,,-0.07850399613,5.12000,4.44000
,,,-0.07849600166,5.08000,4.44000
,,,-0.07848799974,5.12000,4.40000
,,,-0.07847999781,5.12000,4.40000
,,,-0.07847200334,5.08000,4.40000
,,,-0.07846400142,5.12000,4.40000
,,,-0.07845599949,5.12000,4.40000
,,,-0.07844799757,5.12000,4.40000
,,,-0.07844000310,5.12000,4.44000
,,,-0.07843200117,5.12000,4.40000
,,,-0.07842399925,5.12000,4.44000
,,,-0.07841599733,5.08000,4.40000
,,,-0.07840800285,5.12000,4.40000
,,,-0.07840000093,5.08000,4.44000
,,,-0.07839199901,5.12000,4.44000
,,,-0.07838399708,5.12000,4.40000
,,,-0.07837600261,5.08000,4.40000
,,,-0.07836800069,5.12000,4.44000
,,,-0.07835999876,5.08000,4.40000
,,,-0.07835199684,5.08000,4.40000
,,,-0.07834400237,5.08000,4.44000
,,,-0.07833600044,5.12000,4.40000
,,,-0.07832799852,5.12000,4.40000
,,,-0.07831999660,5.12000,4.40000
,,,-0.07831200212,5.12000,4.40000
,,,-0.07830400020,5.12000,4.40000
,,,-0.07829599828,5.12000,4.44000
,,,-0.07828799635,5.12000,4.40000
,,,-0.07828000188,5.12000,4.40000
,,,-0.07827199996,5.12000,4.44000
,,,-0.07826399803,5.12000,4.44000
,,,-0.07825599611,5.12000,4.40000
,,,-0.07824800164,5.08000,4.40000
,,,-0.07823999971,5.12000,4.44000
,,,-0.07823199779,5.12000,4.40000
,,,-0.07822400331,5.08000,4.44000
,,,-0.07821600139,5.12000,4.44000
,,,-0.07820799947,5.12000,4.44000
,,,-0.07819999754,5.12000,4.40000
,,,-0.07819200307,5.12000,4.40000
,,,-0.07818400115,5.12000,4.44000
,,,-0.07817599922,5.12000,4.40000
,,,-0.07816799730,5.12000,4.40000
,,,-0.07816000283,5.12000,4.40000
,,,-0.07815200090,5.12000,4.44000
,,,-0.07814399898,5.12000,4.40000
,,,-0.07813599706,5.12000,4.44000
,,,-0.07812800258,5.12000,4.40000
,,,-0.07812000066,5.12000,4.40000
,,,-0.07811199874,5.12000,4.44000
,,,-0.07810399681,5.12000,4.44000
,,,-0.07809600234,5.12000,4.44000
,,,-0.07808800042,5.12000,4.44000
,,,-0.07807999849,5.12000,4.44000
,,,-0.07807199657,5.12000,4.40000
,,,-0.07806400210,5.12000,4.44000
,,,-0.07805600017,5.08000,4.44000
,,,-0.07804799825,5.12000,4.44000
,,,-0.07803999633,5.12000,4.44000
,,,-0.07803200185,5.08000,4.44000
,,,-0.07802399993,5.12000,4.44000
,,,-0.07801599801,5.12000,4.44000
,,,-0.07800799608,5.12000,4.44000
,,,-0.07800000161,5.08000,4.44000
,,,-0.07799199969,5.08000,4.40000
,,,-0.07798399776,5.08000,4.44000
,,,-0.07797600329,5.08000,4.44000
,,,-0.07796800137,5.12000,4.44000
,,,-0.07795999944,5.12000,4.44000
,,,-0.07795199752,5.12000,4.40000
,,,-0.07794400305,5.12000,4.48000
,,,-0.07793600112,5.08000,4.48000
,,,-0.07792799920,5.12000,4.44000
,,,-0.07791999727,5.12000,4.44000
,,,-0.07791200280,5.12000,4.44000
,,,-0.07790400088,5.12000,4.48000
,,,-0.07789599895,5.12000,4.44000
,,,-0.07788799703,5.12000,4.44000
,,,-0.07788000256,5.12000,4.44000
,,,-0.07787200063,5.12000,4.44000
,,,-0.07786399871,5.08000,4.44000
,,,-0.07785599679,5.08000,4.44000
,,,-0.07784800231,5.12000,4.44000
,,,-0.07784000039,5.12000,4.48000
,,,-0.07783199847,5.12000,4.44000
,,,-0.07782399654,5.12000,4.44000
,,,-0.07781600207,5.12000,4.40000
,,,-0.07780800015,5.12000,4.44000
,,,-0.07779999822,5.08000,4.44000
,,,-0.07779199630,5.12000,4.44000
,,,-0.07778400183,5.12000,4.48000
,,,-0.07777599990,5.12000,4.44000
,,,-0.07776799798,5.12000,4.44000
,,,-0.07776000351,5.12000,4.48000
,,,-0.07775200158,5.12000,4.44000
,,,-0.07774399966,5.12000,4.44000
,,,-0.07773599774,5.12000,4.44000
,,,-0.07772800326,5.12000,4.44000
,,,-0.07772000134,5.12000,4.44000
,,,-0.07771199942,5.12000,4.44000
,,,-0.07770399749,5.12000,4.44000
,,,-0.07769600302,5.12000,4.48000
,,,-0.07768800110,5.08000,4.44000
,,,-0.07767999917,5.12000,4.44000
,,,-0.07767199725,5.12000,4.44000
,,,-0.07766400278,5.12000,4.48000
,,,-0.07765600085,5.12000,4.44000
,,,-0.07764799893,5.12000,4.44000
,,,-0.07763999701,5.12000,4.44000
,,,-0.07763200253,5.08000,4.44000
,,,-0.07762400061,5.12000,4.44000
,,,-0.07761599869,5.12000,4.44000
,,,-0.07760799676,5.12000,4.44000
,,,-0.07760000229,5.12000,4.44000
,,,-0.07759200037,5.12000,4.44000
,,,-0.07758399844,5.12000,4.44000
,,,-0.07757599652,5.12000,4.48000
,,,-0.07756800205,5.12000,4.48000
,,,-0.07756000012,5.08000,4.44000
,,,-0.07755199820,5.12000,4.44000
,,,-0.07754399627,5.12000,4.44000
,,,-0.07753600180,5.12000,4.48000
,,,-0.07752799988,5.12000,4.44000
,,,-0.07751999795,5.12000,4.44000
,,,-0.07751200348,5.12000,4.44000
,,,-0.07750400156,5.12000,4.44000
,,,-0.07749599963,5.12000,4.44000
,,,-0.07748799771,5.12000,4.48000
,,,-0.07748000324,5.12000,4.44000
,,,-0.07747200131,5.12000,4.44000
,,,-0.07746399939,5.12000,4.48000
,,,-0.07745599747,5.12000,4.48000
,,,-0.07744800299,5.08000,4.44000
,,,-0.07744000107,5.12000,4.48000
,,,-0.07743199915,5.12000,4.44000
,,,-0.07742399722,5.12000,4.44000
,,,-0.07741600275,5.12000,4.48000
,,,-0.07740800083,5.12000,4.44000
,,,-0.07739999890,5.12000,4.44000
,,,-0.07739199698,5.12000,4.44000
,,,-0.07738400251,5.08000,4.44000
,,,-0.07737600058,5.12000,4.48000
,,,-0.07736799866,5.12000,4.44000
,,,-0.07735999674,5.12000,4.48000
,,,-0.07735200226,5.08000,4.48000
,,,-0.07734400034,5.12000,4.48000
,,,-0.07733599842,5.12000,4.52000
,,,-0.07732799649,5.12000,4.48000
,,,-0.07732000202,5.12000,4.48000
,,,-0.07731200010,5.12000,4.48000
,,,-0.07730399817,5.08000,4.48000
,,,-0.07729599625,5.12000,4.48000
,,,-0.07728800178,5.12000,4.48000
,,,-0.07727999985,5.12000,4.48000
,,,-0.07727199793,5.12000,4.48000
,,,-0.07726400346,5.12000,4.48000
,,,-0.07725600153,5.12000,4.48000
,,,-0.07724799961,5.12000,4.48000
,,,-0.07723999768,5.12000,4.48000
,,,-0.07723200321,5.08000,4.44000
,,,-0.07722400129,5.12000,4.48000
,,,-0.07721599936,5.12000,4.48000
,,,-0.07720799744,5.12000,4.48000
,,,-0.07720000297,5.12000,4.44000
,,,-0.07719200104,5.12000,4.48000
,,,-0.07718399912,5.12000,4.48000
,,,-0.07717599720,5.12000,4.48000
,,,-0.07716800272,5.12000,4.48000
,,,-0.07716000080,5.08000,4.52000
,,,-0.07715199888,5.12000,4.48000
,,,-0.07714399695,5.12000,4.48000
,,,-0.07713600248,5.12000,4.52000
,,,-0.07712800056,5.12000,4.48000
,,,-0.07711999863,5.12000,4.48000
,,,-0.07711199671,5.08000,4.48000
,,,-0.07710400224,5.12000,4.52000
,,,-0.07709600031,5.12000,4.48000
,,,-0.07708799839,5.12000,4.48000
,,,-0.07707999647,5.12000,4.48000
,,,-0.07707200199,5.12000,4.48000
,,,-0.07706400007,5.12000,4.48000
,,,-0.07705599815,5.12000,4.48000
,,,-0.07704799622,5.12000,4.52000
,,,-0.07704000175,5.12000,4.48000
,,,-0.07703199983,5.12000,4.48000
,,,-0.07702399790,5.12000,4.48000
,,,-0.07701600343,5.12000,4.48000
,,,-0.07700800151,5.12000,4.48000
,,,-0.07699999958,5.12000,4.48000
,,,-0.07699199766,5.08000,4.52000
,,,-0.07698400319,5.08000,4.48000
,,,-0.07697600126,5.12000,4.48000
,,,-0.07696799934,5.12000,4.52000
,,,-0.07695999742,5.12000,4.52000
,,,-0.07695200294,5.12000,4.48000
,,,-0.07694400102,5.12000,4.52000
,,,-0.07693599910,5.12000,4.48000
,,,-0.07692799717,5.12000,4.44000
,,,-0.07692000270,5.12000,4.48000
,,,-0.07691200078,5.12000,4.52000
,,,-0.07690399885,5.12000,4.52000
,,,-0.07689599693,5.12000,4.48000
,,,-0.07688800246,5.12000,4.48000
,,,-0.07688000053,5.12000,4.52000
,,,-0.07687199861,5.12000,4.52000
,,,-0.07686399668,5.12000,4.48000
,,,-0.07685600221,5.12000,4.48000
,,,-0.07684800029,5.12000,4.52000
,,,-0.07683999836,5.12000,4.52000
,,,-0.07683199644,5.12000,4.52000
,,,-0.07682400197,5.12000,4.48000
,,,-0.07681600004,5.12000,4.48000
,,,-0.07680799812,5.12000,4.48000
,,,-0.07679999620,5.12000,4.48000
,,,-0.07679200172,5.12000,4.48000
,,,-0.07678399980,5.12000,4.48000
,,,-0.07677599788,5.12000,4.48000
,,,-0.07676800340,5.12000,4.52000
,,,-0.07676000148,5.12000,4.48000
,,,-0.07675199956,5.12000,4.48000
,,,-0.07674399763,5.12000,4.48000
,,,-0.07673600316,5.12000,4.52000
,,,-0.07672800124,5.12000,4.52000
,,,-0.07671999931,5.12000,4.52000
,,,-0.07671199739,5.12000,4.48000
,,,-0.07670400292,5.12000,4.48000
,,,-0.07669600099,5.12000,4.52000
,,,-0.07668799907,5.12000,4.52000
,,,-0.07667999715,5.12000,4.48000
,,,-0.07667200267,5.12000,4.52000
,,,-0.07666400075,5.12000,4.48000
,,,-0.07665599883,5.12000,4.52000
,,,-0.07664799690,5.12000,4.52000
,,,-0.07664000243,5.08000,4.52000
,,,-0.07663200051,5.12000,4.48000
,,,-0.07662399858,5.12000,4.48000
,,,-0.07661599666,5.12000,4.52000
,,,-0.07660800219,5.12000,4.52000
,,,-0.07660000026,5.12000,4.48000
,,,-0.07659199834,5.12000,4.52000
,,,-0.07658399642,5.12000,4.52000
,,,-0.07657600194,5.12000,4.52000
,,,-0.07656800002,5.12000,4.52000
,,,-0.07655999810,5.12000,4.52000
,,,-0.07655199617,5.12000,4.52000
,,,-0.07654400170,5.08000,4.48000
,,,-0.07653599977,5.12000,4.52000
,,,-0.07652799785,5.12000,4.48000
,,,-0.07652000338,5.12000,4.48000
,,,-0.07651200145,5.12000,4.48000
,,,-0.07650399953,5.12000,4.48000
,,,-0.07649599761,5.12000,4.52000
,,,-0.07648800313,5.12000,4.52000
,,,-0.07648000121,5.12000,4.48000
,,,-0.07647199929,5.12000,4.52000
,,,-0.07646399736,5.12000,4.48000
,,,-0.07645600289,5.08000,4.52000
,,,-0.07644800097,5.12000,4.52000
,,,-0.07643999904,5.12000,4.52000
,,,-0.07643199712,5.12000,4.52000
,,,-0.07642400265,5.12000,4.52000
,,,-0.07641600072,5.12000,4.48000
,,,-0.07640799880,5.12000,4.52000
,,,-0.07639999688,5.12000,4.52000
,,,-0.07639200240,5.12000,4.52000
,,,-0.07638400048,5.12000,4.52000
,,,-0.07637599856,5.12000,4.52000
,,,-0.07636799663,5.12000,4.52000
,,,-0.07636000216,5.12000,4.52000
,,,-0.07635200024,5.12000,4.48000
,,,-0.07634399831,5.12000,4.52000
,,,-0.07633599639,5.12000,4.52000
,,,-0.07632800192,5.12000,4.52000
,,,-0.07631999999,5.12000,4.48000
,,,-0.07631199807,5.12000,4.52000
,,,-0.07630399615,5.12000,4.52000
,,,-0.07629600167,5.12000,4.52000
,,,-0.07628799975,5.12000,4.52000
,,,-0.07627999783,5.12000,4.52000
,,,-0.07627200335,5.12000,4.52000
,,,-0.07626400143,5.12000,4.52000
,,,-0.07625599951,5.12000,4.52000
,,,-0.07624799758,5.12000,4.52000
,,,-0.07624000311,5.12000,4.56000
,,,-0.07623200119,5.12000,4.52000
,,,-0.07622399926,5.12000,4.52000
,,,-0.07621599734,5.12000,4.52000
,,,-0.07620800287,5.12000,4.52000
,,,-0.07620000094,5.12000,4.52000
,,,-0.07619199902,5.12000,4.52000
,,,-0.07618399709,5.12000,4.52000
,,,-0.07617600262,5.12000,4.52000
,,,-0.07616800070,5.12000,4.52000
,,,-0.07615999877,5.12000,4.56000
,,,-0.07615199685,5.12000,4.52000
,,,-0.07614400238,5.12000,4.52000
,,,-0.07613600045,5.12000,4.52000
,,,-0.07612799853,5.12000,4.52000
,,,-0.07611999661,5.12000,4.52000
,,,-0.07611200213,5.12000,4.52000
,,,-0.07610400021,5.12000,4.52000
,,,-0.07609599829,5.12000,4.52000
,,,-0.07608799636,5.12000,4.52000
,,,-0.07608000189,5.12000,4.52000
,,,-0.07607199997,5.12000,4.52000
,,,-0.07606399804,5.12000,4.52000
,,,-0.07605599612,5.12000,4.52000
,,,-0.07604800165,5.12000,4.52000
,,,-0.07603999972,5.12000,4.52000
,,,-0.07603199780,5.12000,4.52000
,,,-0.07602400333,5.12000,4.52000
,,,-0.07601600140,5.12000,4.52000
,,,-0.07600799948,5.12000,4.52000
,,,-0.07599999756,5.12000,4.52000
,,,-0.07599200308,5.16000,4.52000
,,,-0.07598400116,5.12000,4.52000
,,,-0.07597599924,5.12000,4.52000
,,,-0.07596799731,5.12000,4.52000
,,,-0.07596000284,5.12000,4.52000
,,,-0.07595200092,5.12000,4.52000
,,,-0.07594399899,5.12000,4.52000
,,,-0.07593599707,5.12000,4.56000
,,,-0.07592800260,5.08000,4.52000
,,,-0.07592000067,5.12000,4.52000
,,,-0.07591199875,5.12000,4.56000
,,,-0.07590399683,5.12000,4.56000
,,,-0.07589600235,5.12000,4.52000
,,,-0.07588800043,5.12000,4.52000
,,,-0.07587999851,5.12000,4.52000
,,,-0.07587199658,5.12000,4.52000
,,,-0.07586400211,5.12000,4.52000
,,,-0.07585600019,5.12000,4.52000
,,,-0.07584799826,5.12000,4.56000
,,,-0.07583999634,5.12000,4.56000
,,,-0.07583200186,5.12000,4.56000
,,,-0.07582399994,5.12000,4.56000
,,,-0.07581599802,5.12000,4.52000
,,,-0.07580799609,5.12000,4.52000
,,,-0.07580000162,5.12000,4.56000
,,,-0.07579199970,5.12000,4.52000
,,,-0.07578399777,5.12000,4.52000
,,,-0.07577600330,5.12000,4.52000
,,,-0.07576800138,5.12000,4.56000
,,,-0.07575999945,5.12000,4.52000
,,,-0.07575199753,5.12000,4.52000
,,,-0.07574400306,5.12000,4.52000
,,,-0.07573600113,5.12000,4.52000
,,,-0.07572799921,5.12000,4.52000
,,,-0.07571999729,5.12000,4.56000
,,,-0.07571200281,5.12000,4.56000
,,,-0.07570400089,5.12000,4.56000
,,,-0.07569599897,5.12000,4.56000
,,,-0.07568799704,5.16000,4.52000
,,,-0.07568000257,5.12000,4.52000
,,,-0.07567200065,5.12000,4.56000
,,,-0.07566399872,5.12000,4.56000
,,,-0.07565599680,5.12000,4.56000
,,,-0.07564800233,5.12000,4.52000
,,,-0.07564000040,5.12000,4.52000
,,,-0.07563199848,5.12000,4.56000
,,,-0.07562399656,5.12000,4.52000
,,,-0.07561600208,5.12000,4.56000
,,,-0.07560800016,5.12000,4.52000
,,,-0.07559999824,5.12000,4.52000
,,,-0.07559199631,5.12000,4.52000
,,,-0.07558400184,5.12000,4.56000
,,,-0.07557599992,5.12000,4.52000
,,,-0.07556799799,5.12000,4.56000
,,,-0.07556000352,5.12000,4.56000
,,,-0.07555200160,5.12000,4.52000
,,,-0.07554399967,5.12000,4.56000
,,,-0.07553599775,5.12000,4.56000
,,,-0.07552800328,5.12000,4.56000
,,,-0.07552000135,5.12000,4.52000
,,,-0.07551199943,5.12000,4.56000
,,,-0.07550399750,5.12000,4.52000
,,,-0.07549600303,5.12000,4.56000
,,,-0.07548800111,5.12000,4.52000
,,,-0.07547999918,5.12000,4.56000
,,,-0.07547199726,5.12000,4.56000
,,,-0.07546400279,5.12000,4.52000
,,,-0.07545600086,5.12000,4.56000
,,,-0.07544799894,5.16000,4.56000
,,,-0.07543999702,5.12000,4.56000
,,,-0.07543200254,5.12000,4.56000
,,,-0.07542400062,5.12000,4.52000
,,,-0.07541599870,5.12000,4.56000
,,,-0.07540799677,5.12000,4.56000
,,,-0.07540000230,5.12000,4.56000
,,,-0.07539200038,5.12000,4.56000
,,,-0.07538399845,5.12000,4.56000
,,,-0.07537599653,5.08000,4.56000
,,,-0.07536800206,5.12000,4.52000
,,,-0.07536000013,5.12000,4.56000
,,,-0.07535199821,5.12000,4.56000
,,,-0.07534399629,5.12000,4.56000
,,,-0.07533600181,5.12000,4.56000
,,,-0.07532799989,5.12000,4.56000
,,,-0.07531999797,5.12000,4.56000
,,,-0.07531200349,5.12000,4.52000
,,,-0.07530400157,5.12000,4.56000
,,,-0.07529599965,5.12000,4.56000
,,,-0.07528799772,5.12000,4.56000
,,,-0.07528000325,5.12000,4.56000
,,,-0.07527200133,5.12000,4.56000
,,,-0.07526399940,5.12000,4.56000
,,,-0.07525599748,5.12000,4.56000
,,,-0.07524800301,5.12000,4.56000
,,,-0.07524000108,5.12000,4.60000
,,,-0.07523199916,5.12000,4.56000
,,,-0.07522399724,5.12000,4.56000
,,,-0.07521600276,5.12000,4.56000
,,,-0.07520800084,5.08000,4.56000
,,,-0.07519999892,5.12000,4.56000
,,,-0.07519199699,5.08000,4.60000
,,,-0.07518400252,5.12000,4.56000
,,,-0.07517600060,5.12000,4.60000
,,,-0.07516799867,5.12000,4.56000
,,,-0.07515999675,5.12000,4.56000
,,,-0.07515200227,5.12000,4.56000
,,,-0.07514400035,5.12000,4.60000
,,,-0.07513599843,5.12000,4.60000
,,,-0.07512799650,5.12000,4.56000
,,,-0.07512000203,5.12000,4.60000
,,,-0.07511200011,5.12000,4.56000
,,,-0.07510399818,5.12000,4.60000
,,,-0.07509599626,5.08000,4.60000
,,,-0.07508800179,5.12000,4.60000
,,,-0.07507999986,5.12000,4.56000
,,,-0.07507199794,5.12000,4.60000
,,,-0.07506400347,5.12000,4.56000
,,,-0.07505600154,5.16000,4.56000
,,,-0.07504799962,5.12000,4.56000
,,,-0.07503999770,5.08000,4.56000
,,,-0.07503200322,5.12000,4.60000
,,,-0.07502400130,5.12000,4.60000
,,,-0.07501599938,5.12000,4.56000
,,,-0.07500799745,5.12000,4.56000
,,,-0.07500000298,5.12000,4.56000
,,,-0.07499200106,5.12000,4.60000
,,,-0.07498399913,5.12000,4.60000
,,,-0.07497599721,5.12000,4.60000
,,,-0.07496800274,5.12000,4.56000
,,,-0.07496000081,5.12000,4.60000
,,,-0.07495199889,5.12000,4.60000
,,,-0.07494399697,5.12000,4.56000
,,,-0.07493600249,5.12000,4.56000
,,,-0.07492800057,5.12000,4.60000
,,,-0.07491999865,5.12000,4.60000
,,,-0.07491199672,5.12000,4.60000
,,,-0.07490400225,5.12000,4.60000
,,,-0.07489600033,5.12000,4.56000
,,,-0.07488799840,5.08000,4.56000
,,,-0.07487999648,5.12000,4.56000
,,,-0.07487200201,5.08000,4.56000
,,,-0.07486400008,5.12000,4.56000
,,,-0.07485599816,5.12000,4.60000
,,,-0.07484799623,5.12000,4.56000
,,,-0.07484000176,5.12000,4.56000
,,,-0.07483199984,5.12000,4.60000
,,,-0.07482399791,5.12000,4.64000
,,,-0.07481600344,5.12000,4.56000
,,,-0.07480800152,5.12000,4.56000
,,,-0.07479999959,5.12000,4.60000
,,,-0.07479199767,5.12000,4.60000
,,,-0.07478400320,5.12000,4.60000
,,,-0.07477600127,5.12000,4.60000
,,,-0.07476799935,5.12000,4.60000
,,,-0.07475999743,5.12000,4.60000
,,,-0.07475200295,5.12000,4.60000
,,,-0.07474400103,5.12000,4.60000
,,,-0.07473599911,5.12000,4.60000
,,,-0.07472799718,5.12000,4.60000
,,,-0.07472000271,5.12000,4.60000
,,,-0.07471200079,5.16000,4.60000
,,,-0.07470399886,5.12000,4.60000
,,,-0.07469599694,5.12000,4.60000
,,,-0.07468800247,5.16000,4.60000
,,,-0.07468000054,5.12000,4.60000
,,,-0.07467199862,5.12000,4.60000
,,,-0.07466399670,5.12000,4.60000
,,,-0.07465600222,5.12000,4.60000
,,,-0.07464800030,5.12000,4.60000
,,,-0.07463999838,5.12000,4.60000
,,,-0.07463199645,5.12000,4.60000
,,,-0.07462400198,5.12000,4.60000
,,,-0.07461600006,5.12000,4.60000
,,,-0.07460799813,5.12000,4.60000
,,,-0.07459999621,5.12000,4.60000
,,,-0.07459200174,5.12000,4.60000
,,,-0.07458399981,5.12000,4.60000
,,,-0.07457599789,5.12000,4.60000
,,,-0.07456800342,5.12000,4.60000
,,,-0.07456000149,5.12000,4.60000
,,,-0.07455199957,5.12000,4.60000
,,,-0.07454399765,5.12000,4.60000
,,,-0.07453600317,5.12000,4.60000
,,,-0.07452800125,5.12000,4.60000
,,,-0.07451999933,5.12000,4.60000
,,,-0.07451199740,5.12000,4.60000
,,,-0.07450400293,5.12000,4.64000
,,,-0.07449600101,5.12000,4.60000
,,,-0.07448799908,5.12000,4.60000
,,,-0.07447999716,5.12000,4.60000
,,,-0.07447200269,5.12000,4.60000
,,,-0.07446400076,5.12000,4.60000
,,,-0.07445599884,5.12000,4.60000
,,,-0.07444799691,5.12000,4.60000
,,,-0.07444000244,5.12000,4.60000
,,,-0.07443200052,5.12000,4.60000
,,,-0.07442399859,5.12000,4.60000
,,,-0.07441599667,5.12000,4.60000
,,,-0.07440800220,5.12000,4.60000
,,,-0.07440000027,5.12000,4.60000
,,,-0.07439199835,5.12000,4.60000
,,,-0.07438399643,5.12000,4.60000
,,,-0.07437600195,5.12000,4.60000
,,,-0.07436800003,5.12000,4.60000
,,,-0.07435999811,5.12000,4.64000
,,,-0.07435199618,5.12000,4.64000
,,,-0.07434400171,5.12000,4.60000
,,,-0.07433599979,5.12000,4.60000
,,,-0.07432799786,5.12000,4.60000
,,,-0.07432000339,5.12000,4.60000
,,,-0.07431200147,5.12000,4.64000
,,,-0.07430399954,5.12000,4.60000
,,,-0.07429599762,5.12000,4.60000
,,,-0.07428800315,5.12000,4.60000
,,,-0.07428000122,5.12000,4.60000
,,,-0.07427199930,5.12000,4.64000
,,,-0.07426399738,5.12000,4.60000
,,,-0.07425600290,5.12000,4.64000
,,,-0.07424800098,5.12000,4.60000
,,,-0.07423999906,5.12000,4.60000
,,,-0.07423199713,5.12000,4.60000
,,,-0.07422400266,5.12000,4.60000
,,,-0.07421600074,5.12000,4.60000
,,,-0.07420799881,5.12000,4.60000
,,,-0.07419999689,5.12000,4.64000
,,,-0.07419200242,5.12000,4.60000
,,,-0.07418400049,5.12000,4.64000
,,,-0.07417599857,5.16000,4.60000
,,,-0.07416799664,5.12000,4.60000
,,,-0.07416000217,5.12000,4.60000
,,,-0.07415200025,5.12000,4.64000
,,,-0.07414399832,5.12000,4.64000
,,,-0.07413599640,5.12000,4.60000
,,,-0.07412800193,5.12000,4.64000
,,,-0.07412000000,5.12000,4.60000
,,,-0.07411199808,5.12000,4.64000
,,,-0.07410399616,5.16000,4.64000
,,,-0.07409600168,5.12000,4.64000
,,,-0.07408799976,5.12000,4.60000
,,,-0.07407999784,5.12000,4.64000
,,,-0.07407200336,5.12000,4.60000
,,,-0.07406400144,5.12000,4.60000
,,,-0.07405599952,5.12000,4.60000
,,,-0.07404799759,5.12000,4.64000
,,,-0.07404000312,5.12000,4.60000
,,,-0.07403200120,5.12000,4.64000
,,,-0.07402399927,5.12000,4.64000
,,,-0.07401599735,5.12000,4.64000
,,,-0.07400800288,5.12000,4.64000
,,,-0.07400000095,5.12000,4.64000
,,,-0.07399199903,5.12000,4.64000
,,,-0.07398399711,5.12000,4.64000
,,,-0.07397600263,5.12000,4.60000
,,,-0.07396800071,5.16000,4.64000
,,,-0.07395999879,5.12000,4.64000
,,,-0.07395199686,5.12000,4.64000
,,,-0.07394400239,5.12000,4.64000
,,,-0.07393600047,5.12000,4.60000
,,,-0.07392799854,5.12000,4.60000
,,,-0.07391999662,5.12000,4.64000
,,,-0.07391200215,5.12000,4.64000
,,,-0.07390400022,5.12000,4.64000
,,,-0.07389599830,5.12000,4.64000
,,,-0.07388799638,5.12000,4.64000
,,,-0.07388000190,5.12000,4.64000
,,,-0.07387199998,5.12000,4.64000
,,,-0.07386399806,5.12000,4.60000
,,,-0.07385599613,5.12000,4.64000
,,,-0.07384800166,5.12000,4.64000
,,,-0.07383999974,5.12000,4.64000
,,,-0.07383199781,5.12000,4.64000
,,,-0.07382400334,5.12000,4.64000
,,,-0.07381600142,5.12000,4.64000
,,,-0.07380799949,5.12000,4.64000
,,,-0.07379999757,5.12000,4.64000
,,,-0.07379200310,5.12000,4.64000
,,,-0.07378400117,5.12000,4.64000
,,,-0.07377599925,5.12000,4.60000
,,,-0.07376799732,5.12000,4.64000
,,,-0.07376000285,5.12000,4.64000
,,,-0.07375200093,5.12000,4.64000
,,,-0.07374399900,5.12000,4.64000
,,,-0.07373599708,5.12000,4.64000
,,,-0.07372800261,5.12000,4.64000
,,,-0.07372000068,5.16000,4.64000
,,,-0.07371199876,5.12000,4.64000
,,,-0.07370399684,5.12000,4.64000
,,,-0.07369600236,5.12000,4.64000
,,,-0.07368800044,5.12000,4.64000
,,,-0.07367999852,5.12000,4.64000
,,,-0.07367199659,5.12000,4.64000
,,,-0.07366400212,5.12000,4.68000
,,,-0.07365600020,5.12000,4.68000
,,,-0.07364799827,5.12000,4.64000
,,,-0.07363999635,5.16000,4.68000
,,,-0.07363200188,5.12000,4.64000
,,,-0.07362399995,5.12000,4.64000
,,,-0.07361599803,5.12000,4.64000
,,,-0.07360799611,5.12000,4.64000
,,,-0.07360000163,5.12000,4.68000
,,,-0.07359199971,5.12000,4.64000
,,,-0.07358399779,5.12000,4.64000
,,,-0.07357600331,5.16000,4.64000
,,,-0.07356800139,5.12000,4.64000
,,,-0.07355999947,5.12000,4.64000
,,,-0.07355199754,5.12000,4.64000
,,,-0.07354400307,5.12000,4.64000
,,,-0.07353600115,5.12000,4.64000
,,,-0.07352799922,5.12000,4.68000
,,,-0.07351999730,5.12000,4.64000
,,,-0.07351200283,5.12000,4.68000
,,,-0.07350400090,5.12000,4.64000
,,,-0.07349599898,5.12000,4.64000
,,,-0.07348799706,5.12000,4.64000
,,,-0.07348000258,5.12000,4.64000
,,,-0.07347200066,5.12000,4.64000
,,,-0.07346399873,5.12000,4.68000
,,,-0.07345599681,5.12000,4.68000
,,,-0.07344800234,5.12000,4.64000
,,,-0.07344000041,5.12000,4.64000
,,,-0.07343199849,5.12000,4.64000
,,,-0.07342399657,5.12000,4.64000
,,,-0.07341600209,5.12000,4.68000
,,,-0.07340800017,5.12000,4.64000
,,,-0.07339999825,5.12000,4.64000
,,,-0.07339199632,5.12000,4.64000
,,,-0.07338400185,5.12000,4.68000
,,,-0.07337599993,5.12000,4.68000
,,,-0.07336799800,5.16000,4.64000
,,,-0.07336000353,5.12000,4.68000
,,,-0.07335200161,5.12000,4.68000
,,,-0.07334399968,5.12000,4.68000
,,,-0.07333599776,5.12000,4.68000
,,,-0.07332800329,5.12000,4.68000
,,,-0.07332000136,5.12000,4.64000
,,,-0.07331199944,5.12000,4.68000
,,,-0.07330399752,5.12000,4.68000
,,,-0.07329600304,5.12000,4.68000
,,,-0.07328800112,5.12000,4.68000
,,,-0.07327999920,5.12000,4.68000
,,,-0.07327199727,5.12000,4.64000
,,,-0.07326400280,5.12000,4.68000
,,,-0.07325600088,5.12000,4.64000
,,,-0.07324799895,5.12000,4.68000
,,,-0.07323999703,5.12000,4.64000
,,,-0.07323200256,5.12000,4.64000
,,,-0.07322400063,5.12000,4.68000
,,,-0.07321599871,5.12000,4.68000
,,,-0.07320799679,5.12000,4.64000
,,,-0.07320000231,5.16000,4.64000
,,,-0.07319200039,5.12000,4.64000
,,,-0.07318399847,5.12000,4.68000
,,,-0.07317599654,5.12000,4.64000
,,,-0.07316800207,5.16000,4.68000
,,,-0.07316000015,5.16000,4.68000
,,,-0.07315199822,5.16000,4.68000
,,,-0.07314399630,5.12000,4.68000
,,,-0.07313600183,5.12000,4.64000
,,,-0.07312799990,5.12000,4.64000
,,,-0.07311999798,5.12000,4.64000
,,,-0.07311200351,5.12000,4.68000
,,,-0.07310400158,5.12000,4.68000
,,,-0.07309599966,5.12000,4.68000
,,,-0.07308799773,5.12000,4.64000
,,,-0.07308000326,5.12000,4.68000
,,,-0.07307200134,5.12000,4.64000
,,,-0.07306399941,5.12000,4.68000
,,,-0.07305599749,5.12000,4.64000
,,,-0.07304800302,5.12000,4.64000
,,,-0.07304000109,5.12000,4.68000
,,,-0.07303199917,5.16000,4.68000
,,,-0.07302399725,5.12000,4.68000
,,,-0.07301600277,5.12000,4.68000
,,,-0.07300800085,5.12000,4.68000
,,,-0.07299999893,5.12000,4.64000
,,,-0.07299199700,5.12000,4.64000
,,,-0.07298400253,5.12000,4.68000
,,,-0.07297600061,5.12000,4.68000
,,,-0.07296799868,5.12000,4.68000
,,,-0.07295999676,5.12000,4.68000
,,,-0.07295200229,5.12000,4.68000
,,,-0.07294400036,5.12000,4.68000
,,,-0.07293599844,5.16000,4.68000
,,,-0.07292799652,5.12000,4.68000
,,,-0.07292000204,5.12000,4.68000
,,,-0.07291200012,5.12000,4.68000
,,,-0.07290399820,5.16000,4.68000
,,,-0.07289599627,5.12000,4.68000
,,,-0.07288800180,5.12000,4.68000
,,,-0.07287999988,5.12000,4.64000
,,,-0.07287199795,5.12000,4.68000
,,,-0.07286400348,5.12000,4.72000
,,,-0.07285600156,5.12000,4.68000
,,,-0.07284799963,5.12000,4.68000
,,,-0.07283999771,5.12000,4.64000
,,,-0.07283200324,5.12000,4.72000
,,,-0.07282400131,5.12000,4.68000
,,,-0.07281599939,5.12000,4.68000
,,,-0.07280799747,5.12000,4.68000
,,,-0.07280000299,5.12000,4.68000
,,,-0.07279200107,5.12000,4.68000
,,,-0.07278399915,5.12000,4.68000
,,,-0.07277599722,5.12000,4.68000
,,,-0.07276800275,5.12000,4.72000
,,,-0.07276000082,5.12000,4.68000
,,,-0.07275199890,5.12000,4.68000
,,,-0.07274399698,5.12000,4.68000
,,,-0.07273600250,5.12000,4.68000
,,,-0.07272800058,5.12000,4.68000
,,,-0.07271999866,5.12000,4.68000
,,,-0.07271199673,5.12000,4.68000
,,,-0.07270400226,5.12000,4.68000
,,,-0.07269600034,5.12000,4.68000
,,,-0.07268799841,5.12000,4.68000
,,,-0.07267999649,5.12000,4.68000
,,,-0.07267200202,5.12000,4.68000
,,,-0.07266400009,5.12000,4.68000
,,,-0.07265599817,5.12000,4.72000
,,,-0.07264799625,5.12000,4.68000
,,,-0.07264000177,5.12000,4.72000
,,,-0.07263199985,5.16000,4.68000
,,,-0.07262399793,5.16000,4.68000
,,,-0.07261600345,5.16000,4.68000
,,,-0.07260800153,5.16000,4.72000
,,,-0.07259999961,5.12000,4.72000
,,,-0.07259199768,5.12000,4.72000
,,,-0.07258400321,5.12000,4.68000
,,,-0.07257600129,5.12000,4.68000
,,,-0.07256799936,5.12000,4.68000
,,,-0.07255999744,5.12000,4.68000
,,,-0.07255200297,5.12000,4.68000
,,,-0.07254400104,5.12000,4.72000
,,,-0.07253599912,5.16000,4.68000
,,,-0.07252799720,5.12000,4.64000
,,,-0.07252000272,5.12000,4.72000
,,,-0.07251200080,5.12000,4.68000
,,,-0.07250399888,5.12000,4.68000
,,,-0.07249599695,5.16000,4.72000
,,,-0.07248800248,5.12000,4.68000
,,,-0.07248000056,5.12000,4.72000
,,,-0.07247199863,5.12000,4.68000
,,,-0.07246399671,5.12000,4.72000
,,,-0.07245600224,5.12000,4.68000
,,,-0.07244800031,5.12000,4.68000
,,,-0.07243999839,5.12000,4.68000
,,,-0.07243199646,5.12000,4.68000
,,,-0.07242400199,5.12000,4.72000
,,,-0.07241600007,5.12000,4.68000
,,,-0.07240799814,5.12000,4.68000
,,,-0.07239999622,5.12000,4.68000
,,,-0.07239200175,5.12000,4.72000
,,,-0.07238399982,5.12000,4.68000
,,,-0.07237599790,5.12000,4.72000
,,,-0.07236800343,5.12000,4.68000
,,,-0.07236000150,5.16000,4.72000
,,,-0.07235199958,5.16000,4.72000
,,,-0.07234399766,5.16000,4.72000
,,,-0.07233600318,5.12000,4.68000
,,,-0.07232800126,5.12000,4.68000
,,,-0.07231999934,5.16000,4.68000
,,,-0.07231199741,5.12000,4.68000
,,,-0.07230400294,5.12000,4.72000
,,,-0.07229600102,5.12000,4.72000
,,,-0.07228799909,5.12000,4.72000
,,,-0.07227999717,5.12000,4.72000
,,,-0.07227200270,5.12000,4.68000
,,,-0.07226400077,5.12000,4.72000
,,,-0.07225599885,5.12000,4.72000
,,,-0.07224799693,5.12000,4.72000
,,,-0.07224000245,5.16000,4.72000
,,,-0.07223200053,5.12000,4.68000
,,,-0.07222399861,5.12000,4.72000
,,,-0.07221599668,5.12000,4.72000
,,,-0.07220800221,5.12000,4.68000
,,,-0.07220000029,5.12000,4.72000
,,,-0.07219199836,5.12000,4.72000
,,,-0.07218399644,5.16000,4.72000
,,,-0.07217600197,5.12000,4.68000
,,,-0.07216800004,5.12000,4.72000
,,,-0.07215999812,5.12000,4.72000
,,,-0.07215199620,5.12000,4.72000
,,,-0.07214400172,5.16000,4.72000
,,,-0.07213599980,5.12000,4.68000
,,,-0.07212799788,5.12000,4.72000
,,,-0.07212000340,5.16000,4.68000
,,,-0.07211200148,5.16000,4.72000
,,,-0.07210399956,5.16000,4.72000
,,,-0.07209599763,5.12000,4.72000
,,,-0.07208800316,5.12000,4.68000
,,,-0.07208000124,5.12000,4.68000
,,,-0.07207199931,5.12000,4.72000
,,,-0.07206399739,5.12000,4.72000
,,,-0.07205600291,5.12000,4.72000
,,,-0.07204800099,5.12000,4.68000
,,,-0.07203999907,5.12000,4.72000
,,,-0.07203199714,5.16000,4.68000
,,,-0.07202400267,5.12000,4.72000
,,,-0.07201600075,5.12000,4.68000
,,,-0.07200799882,5.12000,4.68000
,,,-0.07199999690,5.16000,4.68000
,,,-0.07199200243,5.12000,4.68000
,,,-0.07198400050,5.12000,4.68000
,,,-0.07197599858,5.12000,4.68000
,,,-0.07196799666,5.12000,4.68000
,,,-0.07196000218,5.12000,4.72000
,,,-0.07195200026,5.12000,4.72000
,,,-0.07194399834,5.12000,4.68000
,,,-0.07193599641,5.12000,4.68000
,,,-0.07192800194,5.12000,4.72000
,,,-0.07192000002,5.12000,4.68000
,,,-0.07191199809,5.16000,4.72000
,,,-0.07190399617,5.12000,4.72000
,,,-0.07189600170,5.12000,4.72000
,,,-0.07188799977,5.16000,4.72000
,,,-0.07187999785,5.12000,4.72000
,,,-0.07187200338,5.16000,4.68000
,,,-0.07186400145,5.12000,4.68000
,,,-0.07185599953,5.12000,4.68000
,,,-0.07184799761,5.12000,4.72000
,,,-0.07184000313,5.12000,4.72000
,,,-0.07183200121,5.16000,4.72000
,,,-0.07182399929,5.12000,4.68000
,,,-0.07181599736,5.12000,4.72000
,,,-0.07180800289,5.12000,4.68000
,,,-0.07180000097,5.12000,4.72000
,,,-0.07179199904,5.12000,4.72000
,,,-0.07178399712,5.12000,4.72000
,,,-0.07177600265,5.12000,4.72000
,,,-0.07176800072,5.12000,4.68000
,,,-0.07175999880,5.12000,4.72000
,,,-0.07175199687,5.12000,4.72000
,,,-0.07174400240,5.12000,4.72000
,,,-0.07173600048,5.16000,4.72000
,,,-0.07172799855,5.12000,4.68000
,,,-0.07171999663,5.12000,4.72000
,,,-0.07171200216,5.12000,4.72000
,,,-0.07170400023,5.12000,4.72000
,,,-0.07169599831,5.16000,4.68000
,,,-0.07168799639,5.12000,4.72000
,,,-0.07168000191,5.16000,4.72000
,,,-0.07167199999,5.12000,4.72000
,,,-0.07166399807,5.12000,4.76000
,,,-0.07165599614,5.12000,4.72000
,,,-0.07164800167,5.12000,4.72000
,,,-0.07163999975,5.16000,4.72000
,,,-0.07163199782,5.12000,4.72000
,,,-0.07162400335,5.12000,4.72000
,,,-0.07161600143,5.12000,4.68000
,,,-0.07160799950,5.12000,4.68000
,,,-0.07159999758,5.12000,4.68000
,,,-0.07159200311,5.12000,4.72000
,,,-0.07158400118,5.12000,4.72000
,,,-0.07157599926,5.12000,4.72000
,,,-0.07156799734,5.12000,4.68000
,,,-0.07156000286,5.12000,4.72000
,,,-0.07155200094,5.12000,4.72000
,,,-0.07154399902,5.12000,4.72000
,,,-0.07153599709,5.12000,4.72000
,,,-0.07152800262,5.12000,4.72000
,,,-0.07152000070,5.12000,4.68000
,,,-0.07151199877,5.12000,4.72000
,,,-0.07150399685,5.16000,4.72000
,,,-0.07149600238,5.12000,4.72000
,,,-0.07148800045,5.12000,4.72000
,,,-0.07147999853,5.12000,4.72000
,,,-0.07147199661,5.16000,4.68000
,,,-0.07146400213,5.12000,4.72000
,,,-0.07145600021,5.16000,4.72000
,,,-0.07144799829,5.12000,4.72000
,,,-0.07143999636,5.12000,4.72000
,,,-0.07143200189,5.12000,4.68000
,,,-0.07142399997,5.12000,4.72000
,,,-0.07141599804,5.12000,4.72000
,,,-0.07140799612,5.12000,4.68000
,,,-0.07140000165,5.12000,4.72000
,,,-0.07139199972,5.12000,4.72000
,,,-0.07138399780,5.16000,4.72000
,,,-0.07137600332,5.16000,4.72000
,,,-0.07136800140,5.12000,4.72000
,,,-0.07135999948,5.12000,4.72000
,,,-0.07135199755,5.12000,4.72000
,,,-0.07134400308,5.12000,4.72000
,,,-0.07133600116,5.12000,4.72000
,,,-0.07132799923,5.12000,4.72000
,,,-0.07131999731,5.12000,4.68000
,,,-0.07131200284,5.12000,4.72000
,,,-0.07130400091,5.12000,4.72000
,,,-0.07129599899,5.12000,4.72000
,,,-0.07128799707,5.12000,4.72000
,,,-0.07128000259,5.12000,4.68000
,,,-0.07127200067,5.12000,4.72000
,,,-0.07126399875,5.12000,4.72000
,,,-0.07125599682,5.12000,4.72000
,,,-0.07124800235,5.12000,4.72000
,,,-0.07124000043,5.12000,4.72000
,,,-0.07123199850,5.12000,4.72000
,,,-0.07122399658,5.12000,4.72000
,,,-0.07121600211,5.12000,4.72000
,,,-0.07120800018,5.12000,4.72000
,,,-0.07119999826,5.12000,4.68000
,,,-0.07119199634,5.12000,4.72000
,,,-0.07118400186,5.12000,4.72000
,,,-0.07117599994,5.12000,4.68000
,,,-0.07116799802,5.12000,4.68000
,,,-0.07116000354,5.12000,4.72000
,,,-0.07115200162,5.12000,4.72000
,,,-0.07114399970,5.12000,4.72000
,,,-0.07113599777,5.12000,4.72000
,,,-0.07112800330,5.12000,4.72000
,,,-0.07112000138,5.12000,4.72000
,,,-0.07111199945,5.12000,4.72000
,,,-0.07110399753,5.12000,4.72000
,,,-0.07109600306,5.12000,4.72000
,,,-0.07108800113,5.12000,4.72000
,,,-0.07107999921,5.12000,4.72000
,,,-0.07107199728,5.16000,4.72000
,,,-0.07106400281,5.12000,4.72000
,,,-0.07105600089,5.12000,4.72000
,,,-0.07104799896,5.12000,4.72000
,,,-0.07103999704,5.12000,4.72000
,,,-0.07103200257,5.12000,4.72000
,,,-0.07102400064,5.16000,4.72000
,,,-0.07101599872,5.16000,4.72000
,,,-0.07100799680,5.12000,4.72000
,,,-0.07100000232,5.12000,4.72000
,,,-0.07099200040,5.16000,4.72000
,,,-0.07098399848,5.12000,4.72000
,,,-0.07097599655,5.12000,4.76000
,,,-0.07096800208,5.12000,4.72000
,,,-0.07096000016,5.12000,4.72000
,,,-0.07095199823,5.12000,4.72000
,,,-0.07094399631,5.12000,4.72000
,,,-0.07093600184,5.12000,4.72000
,,,-0.07092799991,5.12000,4.72000
,,,-0.07091999799,5.12000,4.72000
,,,-0.07091200352,5.12000,4.68000
,,,-0.07090400159,5.12000,4.72000
,,,-0.07089599967,5.12000,4.72000
,,,-0.07088799775,5.12000,4.72000
,,,-0.07088000327,5.12000,4.68000
,,,-0.07087200135,5.12000,4.72000
,,,-0.07086399943,5.12000,4.68000
,,,-0.07085599750,5.12000,4.72000
,,,-0.07084800303,5.16000,4.72000
,,,-0.07084000111,5.12000,4.68000
,,,-0.07083199918,5.12000,4.72000
,,,-0.07082399726,5.12000,4.72000
,,,-0.07081600279,5.12000,4.72000
,,,-0.07080800086,5.12000,4.68000
,,,-0.07079999894,5.12000,4.72000
,,,-0.07079199702,5.12000,4.68000
,,,-0.07078400254,5.12000,4.72000
,,,-0.07077600062,5.12000,4.72000
,,,-0.07076799870,5.12000,4.72000
,,,-0.07075999677,5.12000,4.72000
,,,-0.07075200230,5.16000,4.72000
,,,-0.07074400038,5.12000,4.72000
,,,-0.07073599845,5.12000,4.72000
,,,-0.07072799653,5.12000,4.72000
,,,-0.07072000206,5.12000,4.72000
,,,-0.07071200013,5.16000,4.72000
,,,-0.07070399821,5.12000,4.68000
,,,-0.07069599628,5.12000,4.72000
,,,-0.07068800181,5.12000,4.72000
,,,-0.07067999989,5.12000,4.72000
,,,-0.07067199796,5.16000,4.72000
,,,-0.07066400349,5.16000,4.72000
,,,-0.07065600157,5.16000,4.72000
,,,-0.07064799964,5.12000,4.72000
,,,-0.07063999772,5.12000,4.72000
,,,-0.07063200325,5.16000,4.72000
,,,-0.07062400132,5.12000,4.72000
,,,-0.07061599940,5.12000,4.72000
,,,-0.07060799748,5.12000,4.72000
,,,-0.07060000300,5.12000,4.68000
,,,-0.07059200108,5.12000,4.72000
,,,-0.07058399916,5.12000,4.72000
,,,-0.07057599723,5.12000,4.72000
,,,-0.07056800276,5.12000,4.72000
,,,-0.07056000084,5.12000,4.72000
,,,-0.07055199891,5.12000,4.72000
,,,-0.07054399699,5.12000,4.76000
,,,-0.07053600252,5.12000,4.72000
,,,-0.07052800059,5.12000,4.72000
,,,-0.07051999867,5.12000,4.72000
,,,-0.07051199675,5.12000,4.68000
,,,-0.07050400227,5.12000,4.72000
,,,-0.07049600035,5.12000,4.72000
,,,-0.07048799843,5.12000,4.72000
,,,-0.07047999650,5.12000,4.72000
,,,-0.07047200203,5.12000,4.72000
,,,-0.07046400011,5.12000,4.72000
,,,-0.07045599818,5.12000,4.68000
,,,-0.07044799626,5.12000,4.72000
,,,-0.07044000179,5.16000,4.72000
,,,-0.07043199986,5.12000,4.72000
,,,-0.07042399794,5.12000,4.72000
,,,-0.07041600347,5.12000,4.72000
,,,-0.07040800154,5.12000,4.72000
,,,-0.07039999962,5.12000,4.72000
,,,-0.07039199769,5.16000,4.72000
,,,-0.07038400322,5.12000,4.72000
,,,-0.07037600130,5.12000,4.72000
,,,-0.07036799937,5.12000,4.68000
,,,-0.07035999745,5.12000,4.72000
,,,-0.07035200298,5.12000,4.72000
,,,-0.07034400105,5.12000,4.72000
,,,-0.07033599913,5.12000,4.72000
,,,-0.07032799721,5.12000,4.72000
,,,-0.07032000273,5.12000,4.68000
,,,-0.07031200081,5.12000,4.68000
,,,-0.07030399889,5.12000,4.72000
,,,-0.07029599696,5.16000,4.72000
,,,-0.07028800249,5.12000,4.72000
,,,-0.07028000057,5.12000,4.72000
,,,-0.07027199864,5.16000,4.68000
,,,-0.07026399672,5.12000,4.72000
,,,-0.07025600225,5.12000,4.72000
,,,-0.07024800032,5.12000,4.72000
,,,-0.07023999840,5.12000,4.72000
,,,-0.07023199648,5.12000,4.72000
,,,-0.07022400200,5.12000,4.72000
,,,-0.07021600008,5.12000,4.72000
,,,-0.07020799816,5.12000,4.72000
,,,-0.07019999623,5.12000,4.72000
,,,-0.07019200176,5.16000,4.68000
,,,-0.07018399984,5.12000,4.72000
,,,-0.07017599791,5.12000,4.72000
,,,-0.07016800344,5.12000,4.72000
,,,-0.07016000152,5.12000,4.72000
,,,-0.07015199959,5.12000,4.72000
,,,-0.07014399767,5.12000,4.72000
,,,-0.07013600320,5.12000,4.72000
,,,-0.07012800127,5.12000,4.68000
,,,-0.07011999935,5.12000,4.68000
,,,-0.07011199743,5.12000,4.72000
,,,-0.07010400295,5.12000,4.72000
,,,-0.07009600103,5.12000,4.72000
,,,-0.07008799911,5.12000,4.72000
,,,-0.07007999718,5.12000,4.72000
,,,-0.07007200271,5.12000,4.72000
,,,-0.07006400079,5.12000,4.72000
,,,-0.07005599886,5.12000,4.72000
,,,-0.07004799694,5.12000,4.72000
,,,-0.07004000247,5.12000,4.72000
,,,-0.07003200054,5.12000,4.72000
,,,-0.07002399862,5.12000,4.72000
,,,-0.07001599669,5.16000,4.72000
,,,-0.07000800222,5.12000,4.72000
,,,-0.07000000030,5.12000,4.72000
,,,-0.06999199837,5.12000,4.68000
,,,-0.06998399645,5.16000,4.72000
,,,-0.06997600198,5.12000,4.72000
,,,-0.06996800005,5.12000,4.72000
,,,-0.06995999813,5.12000,4.72000
,,,-0.06995199621,5.12000,4.68000
,,,-0.06994400173,5.12000,4.68000
,,,-0.06993599981,5.12000,4.72000
,,,-0.06992799789,5.12000,4.72000
,,,-0.06992000341,5.12000,4.72000
,,,-0.06991200149,5.12000,4.72000
,,,-0.06990399957,5.16000,4.72000
,,,-0.06989599764,5.12000,4.68000
,,,-0.06988800317,5.12000,4.72000
,,,-0.06988000125,5.12000,4.72000
,,,-0.06987199932,5.12000,4.72000
,,,-0.06986399740,5.12000,4.72000
,,,-0.06985600293,5.12000,4.68000
,,,-0.06984800100,5.12000,4.72000
,,,-0.06983999908,5.12000,4.72000
,,,-0.06983199716,5.12000,4.72000
,,,-0.06982400268,5.12000,4.72000
,,,-0.06981600076,5.12000,4.72000
,,,-0.06980799884,5.12000,4.72000
,,,-0.06979999691,5.12000,4.72000
,,,-0.06979200244,5.12000,4.72000
,,,-0.06978400052,5.12000,4.72000
,,,-0.06977599859,5.12000,4.72000
,,,-0.06976799667,5.12000,4.72000
,,,-0.06976000220,5.12000,4.72000
,,,-0.06975200027,5.12000,4.72000
,,,-0.06974399835,5.12000,4.72000
,,,-0.06973599643,5.16000,4.72000
,,,-0.06972800195,5.12000,4.72000
,,,-0.06972000003,5.12000,4.68000
,,,-0.06971199811,5.12000,4.72000
,,,-0.06970399618,5.12000,4.72000
,,,-0.06969600171,5.12000,4.72000
,,,-0.06968799978,5.12000,4.68000
,,,-0.06967999786,5.12000,4.72000
,,,-0.06967200339,5.12000,4.68000
,,,-0.06966400146,5.12000,4.68000
,,,-0.06965599954,5.12000,4.68000
,,,-0.06964799762,5.12000,4.72000
,,,-0.06964000314,5.12000,4.72000
,,,-0.06963200122,5.12000,4.72000
,,,-0.06962399930,5.12000,4.72000
,,,-0.06961599737,5.16000,4.72000
,,,-0.06960800290,5.12000,4.68000
,,,-0.06960000098,5.12000,4.68000
,,,-0.06959199905,5.12000,4.72000
,,,-0.06958399713,5.12000,4.72000
,,,-0.06957600266,5.12000,4.68000
,,,-0.06956800073,5.16000,4.68000
,,,-0.06955999881,5.12000,4.72000
,,,-0.06955199689,5.12000,4.68000
,,,-0.06954400241,5.12000,4.68000
,,,-0.06953600049,5.12000,4.72000
,,,-0.06952799857,5.12000,4.68000
,,,-0.06951999664,5.12000,4.68000
,,,-0.06951200217,5.12000,4.72000
,,,-0.06950400025,5.12000,4.72000
,,,-0.06949599832,5.12000,4.68000
,,,-0.06948799640,5.12000,4.72000
,,,-0.06948000193,5.12000,4.72000
,,,-0.06947200000,5.12000,4.72000
,,,-0.06946399808,5.12000,4.72000
,,,-0.06945599616,5.16000,4.68000
,,,-0.06944800168,5.12000,4.72000
,,,-0.06943999976,5.12000,4.72000
,,,-0.06943199784,5.12000,4.68000
,,,-0.06942400336,5.12000,4.72000
,,,-0.06941600144,5.12000,4.68000
,,,-0.06940799952,5.12000,4.72000
,,,-0.06939999759,5.12000,4.68000
,,,-0.06939200312,5.12000,4.72000
,,,-0.06938400120,5.16000,4.72000
,,,-0.06937599927,5.12000,4.68000
,,,-0.06936799735,5.16000,4.72000
,,,-0.06936000288,5.12000,4.72000
,,,-0.06935200095,5.12000,4.72000
,,,-0.06934399903,5.12000,4.68000
,,,-0.06933599710,5.12000,4.72000
,,,-0.06932800263,5.12000,4.72000
,,,-0.06932000071,5.16000,4.68000
,,,-0.06931199878,5.12000,4.72000
,,,-0.06930399686,5.12000,4.72000
,,,-0.06929600239,5.12000,4.72000
,,,-0.06928800046,5.12000,4.72000
,,,-0.06927999854,5.12000,4.72000
,,,-0.06927199662,5.12000,4.72000
,,,-0.06926400214,5.16000,4.72000
,,,-0.06925600022,5.12000,4.72000
,,,-0.06924799830,5.12000,4.72000
,,,-0.06923999637,5.12000,4.72000
,,,-0.06923200190,5.12000,4.68000
,,,-0.06922399998,5.12000,4.72000
,,,-0.06921599805,5.12000,4.72000
,,,-0.06920799613,5.16000,4.68000
,,,-0.06920000166,5.12000,4.72000
,,,-0.06919199973,5.12000,4.72000
,,,-0.06918399781,5.12000,4.72000
,,,-0.06917600334,5.12000,4.68000
,,,-0.06916800141,5.12000,4.72000
,,,-0.06915999949,5.12000,4.72000
,,,-0.06915199757,5.12000,4.68000
,,,-0.06914400309,5.12000,4.72000
,,,-0.06913600117,5.12000,4.68000
,,,-0.06912799925,5.12000,4.68000
,,,-0.06911999732,5.12000,4.72000
,,,-0.06911200285,5.16000,4.68000
,,,-0.06910400093,5.16000,4.68000
,,,-0.06909599900,5.12000,4.68000
,,,-0.06908799708,5.12000,4.68000
,,,-0.06908000261,5.12000,4.68000
,,,-0.06907200068,5.12000,4.68000
,,,-0.06906399876,5.16000,4.72000
,,,-0.06905599684,5.16000,4.72000
,,,-0.06904800236,5.12000,4.72000
,,,-0.06904000044,5.12000,4.72000
,,,-0.06903199852,5.12000,4.68000
,,,-0.06902399659,5.12000,4.68000
,,,-0.06901600212,5.16000,4.68000
,,,-0.06900800020,5.12000,4.72000
,,,-0.06899999827,5.16000,4.68000
,,,-0.06899199635,5.12000,4.72000
,,,-0.06898400187,5.12000,4.72000
,,,-0.06897599995,5.16000,4.68000
,,,-0.06896799803,5.16000,4.72000
,,,-0.06895999610,5.12000,4.68000
,,,-0.06895200163,5.16000,4.72000
,,,-0.06894399971,5.12000,4.68000
,,,-0.06893599778,5.12000,4.68000
,,,-0.06892800331,5.16000,4.68000
,,,-0.06892000139,5.12000,4.68000
,,,-0.06891199946,5.12000,4.68000
,,,-0.06890399754,5.12000,4.72000
,,,-0.06889600307,5.12000,4.68000
,,,-0.06888800114,5.12000,4.72000
,,,-0.06887999922,5.12000,4.68000
,,,-0.06887199730,5.16000,4.68000
,,,-0.06886400282,5.16000,4.72000
,,,-0.06885600090,5.12000,4.72000
,,,-0.06884799898,5.12000,4.68000
,,,-0.06883999705,5.12000,4.68000
,,,-0.06883200258,5.12000,4.68000
,,,-0.06882400066,5.12000,4.68000
,,,-0.06881599873,5.16000,4.72000
,,,-0.06880799681,5.12000,4.72000
,,,-0.06880000234,5.12000,4.72000
,,,-0.06879200041,5.12000,4.68000
,,,-0.06878399849,5.12000,4.68000
,,,-0.06877599657,5.12000,4.68000
,,,-0.06876800209,5.12000,4.72000
,,,-0.06876000017,5.12000,4.68000
,,,-0.06875199825,5.12000,4.68000
,,,-0.06874399632,5.12000,4.68000
,,,-0.06873600185,5.12000,4.72000
,,,-0.06872799993,5.12000,4.68000
,,,-0.06871999800,5.16000,4.72000
,,,-0.06871200353,5.12000,4.72000
,,,-0.06870400161,5.12000,4.72000
,,,-0.06869599968,5.16000,4.72000
,,,-0.06868799776,5.12000,4.68000
,,,-0.06868000329,5.12000,4.68000
,,,-0.06867200136,5.12000,4.68000
,,,-0.06866399944,5.12000,4.68000
,,,-0.06865599751,5.12000,4.72000
,,,-0.06864800304,5.12000,4.72000
,,,-0.06864000112,5.12000,4.68000
,,,-0.06863199919,5.12000,4.68000
,,,-0.06862399727,5.12000,4.68000
,,,-0.06861600280,5.12000,4.68000
,,,-0.06860800087,5.12000,4.68000
,,,-0.06859999895,5.12000,4.68000
,,,-0.06859199703,5.12000,4.72000
,,,-0.06858400255,5.16000,4.68000
,,,-0.06857600063,5.12000,4.68000
,,,-0.06856799871,5.12000,4.72000
,,,-0.06855999678,5.16000,4.68000
,,,-0.06855200231,5.12000,4.68000
,,,-0.06854400039,5.12000,4.72000
,,,-0.06853599846,5.12000,4.68000
,,,-0.06852799654,5.12000,4.68000
,,,-0.06852000207,5.16000,4.68000
,,,-0.06851200014,5.12000,4.64000
,,,-0.06850399822,5.12000,4.68000
,,,-0.06849599630,5.12000,4.72000
,,,-0.06848800182,5.12000,4.68000
,,,-0.06847999990,5.12000,4.68000
,,,-0.06847199798,5.12000,4.68000
,,,-0.06846400350,5.12000,4.68000
,,,-0.06845600158,5.12000,4.68000
,,,-0.06844799966,5.12000,4.68000
,,,-0.06843999773,5.12000,4.64000
,,,-0.06843200326,5.16000,4.68000
,,,-0.06842400134,5.12000,4.68000
,,,-0.06841599941,5.12000,4.68000
,,,-0.06840799749,5.12000,4.68000
,,,-0.06840000302,5.12000,4.68000
,,,-0.06839200109,5.12000,4.68000
,,,-0.06838399917,5.12000,4.68000
,,,-0.06837599725,5.12000,4.68000
,,,-0.06836800277,5.12000,4.64000
,,,-0.06836000085,5.12000,4.68000
,,,-0.06835199893,5.16000,4.72000
,,,-0.06834399700,5.12000,4.68000
,,,-0.06833600253,5.12000,4.68000
,,,-0.06832800061,5.12000,4.72000
,,,-0.06831999868,5.12000,4.68000
,,,-0.06831199676,5.12000,4.68000
,,,-0.06830400229,5.12000,4.68000
,,,-0.06829600036,5.12000,4.68000
,,,-0.06828799844,5.12000,4.68000
,,,-0.06827999651,5.12000,4.68000
,,,-0.06827200204,5.12000,4.68000
,,,-0.06826400012,5.12000,4.68000
,,,-0.06825599819,5.16000,4.64000
,,,-0.06824799627,5.12000,4.68000
,,,-0.06824000180,5.12000,4.68000
,,,-0.06823199987,5.12000,4.68000
,,,-0.06822399795,5.12000,4.68000
,,,-0.06821600348,5.12000,4.68000
,,,-0.06820800155,5.08000,4.68000
,,,-0.06819999963,5.12000,4.68000
,,,-0.06819199771,5.12000,4.68000
,,,-0.06818400323,5.12000,4.64000
,,,-0.06817600131,5.16000,4.68000
,,,-0.06816799939,5.12000,4.68000
,,,-0.06815999746,5.12000,4.68000
,,,-0.06815200299,5.12000,4.68000
,,,-0.06814400107,5.12000,4.68000
,,,-0.06813599914,5.16000,4.72000
,,,-0.06812799722,5.12000,4.68000
,,,-0.06812000275,5.16000,4.64000
,,,-0.06811200082,5.12000,4.68000
,,,-0.06810399890,5.16000,4.68000
,,,-0.06809599698,5.12000,4.68000
,,,-0.06808800250,5.12000,4.68000
,,,-0.06808000058,5.12000,4.68000
,,,-0.06807199866,5.12000,4.68000
,,,-0.06806399673,5.12000,4.68000
,,,-0.06805600226,5.12000,4.68000
,,,-0.06804800034,5.12000,4.68000
,,,-0.06803999841,5.12000,4.64000
,,,-0.06803199649,5.12000,4.68000
,,,-0.06802400202,5.12000,4.68000
,,,-0.06801600009,5.12000,4.68000
,,,-0.06800799817,5.12000,4.68000
,,,-0.06799999624,5.12000,4.68000
,,,-0.06799200177,5.12000,4.68000
,,,-0.06798399985,5.12000,4.68000
,,,-0.06797599792,5.08000,4.68000
,,,-0.06796800345,5.12000,4.68000
,,,-0.06796000153,5.12000,4.68000
,,,-0.06795199960,5.12000,4.68000
,,,-0.06794399768,5.16000,4.68000
,,,-0.06793600321,5.12000,4.68000
,,,-0.06792800128,5.16000,4.64000
,,,-0.06791999936,5.12000,4.68000
,,,-0.06791199744,5.12000,4.68000
,,,-0.06790400296,5.12000,4.64000
,,,-0.06789600104,5.12000,4.68000
,,,-0.06788799912,5.12000,4.68000
,,,-0.06787999719,5.12000,4.64000
,,,-0.06787200272,5.12000,4.64000
,,,-0.06786400080,5.08000,4.68000
,,,-0.06785599887,5.12000,4.64000
,,,-0.06784799695,5.12000,4.68000
,,,-0.06784000248,5.12000,4.68000
,,,-0.06783200055,5.12000,4.68000
,,,-0.06782399863,5.12000,4.64000
,,,-0.06781599671,5.12000,4.64000
,,,-0.06780800223,5.12000,4.68000
,,,-0.06780000031,5.12000,4.68000
,,,-0.06779199839,5.12000,4.68000
,,,-0.06778399646,5.12000,4.64000
,,,-0.06777600199,5.12000,4.68000
,,,-0.06776800007,5.12000,4.64000
,,,-0.06775999814,5.16000,4.64000
,,,-0.06775199622,5.12000,4.68000
,,,-0.06774400175,5.12000,4.68000
,,,-0.06773599982,5.12000,4.68000
,,,-0.06772799790,5.12000,4.68000
,,,-0.06772000343,5.12000,4.68000
,,,-0.06771200150,5.12000,4.68000
,,,-0.06770399958,5.12000,4.68000
,,,-0.06769599766,5.12000,4.64000
,,,-0.06768800318,5.12000,4.68000
,,,-0.06768000126,5.12000,4.64000
,,,-0.06767199934,5.12000,4.68000
,,,-0.06766399741,5.12000,4.68000
,,,-0.06765600294,5.12000,4.68000
,,,-0.06764800102,5.12000,4.68000
,,,-0.06763999909,5.12000,4.64000
,,,-0.06763199717,5.12000,4.68000
,,,-0.06762400270,5.12000,4.64000
,,,-0.06761600077,5.12000,4.68000
,,,-0.06760799885,5.12000,4.68000
,,,-0.06759999692,5.12000,4.68000
,,,-0.06759200245,5.12000,4.64000
,,,-0.06758400053,5.12000,4.64000
,,,-0.06757599860,5.12000,4.68000
,,,-0.06756799668,5.16000,4.64000
,,,-0.06756000221,5.12000,4.64000
,,,-0.06755200028,5.08000,4.64000
,,,-0.06754399836,5.16000,4.68000
,,,-0.06753599644,5.12000,4.64000
,,,-0.06752800196,5.12000,4.64000
,,,-0.06752000004,5.12000,4.64000
,,,-0.06751199812,5.12000,4.64000
,,,-0.06750399619,5.12000,4.64000
,,,-0.06749600172,5.12000,4.64000
,,,-0.06748799980,5.16000,4.64000
,,,-0.06747999787,5.12000,4.64000
,,,-0.06747200340,5.12000,4.68000
,,,-0.06746400148,5.12000,4.64000
,,,-0.06745599955,5.12000,4.64000
,,,-0.06744799763,5.12000,4.64000
,,,-0.06744000316,5.12000,4.64000
,,,-0.06743200123,5.16000,4.64000
,,,-0.06742399931,5.12000,4.64000
,,,-0.06741599739,5.12000,4.64000
,,,-0.06740800291,5.12000,4.64000
,,,-0.06740000099,5.12000,4.68000
,,,-0.06739199907,5.12000,4.64000
,,,-0.06738399714,5.12000,4.68000
,,,-0.06737600267,5.12000,4.64000
,,,-0.06736800075,5.12000,4.64000
,,,-0.06735999882,5.16000,4.64000
,,,-0.06735199690,5.12000,4.64000
,,,-0.06734400243,5.12000,4.64000
,,,-0.06733600050,5.12000,4.64000
,,,-0.06732799858,5.12000,4.64000
,,,-0.06731999665,5.12000,4.64000
,,,-0.06731200218,5.12000,4.64000
,,,-0.06730400026,5.12000,4.64000
,,,-0.06729599833,5.12000,4.64000
,,,-0.06728799641,5.12000,4.64000
,,,-0.06728000194,5.12000,4.64000
,,,-0.06727200001,5.12000,4.64000
,,,-0.06726399809,5.12000,4.64000
,,,-0.06725599617,5.12000,4.64000
,,,-0.06724800169,5.12000,4.64000
,,,-0.06723999977,5.12000,4.64000
,,,-0.06723199785,5.12000,4.64000
,,,-0.06722400337,5.12000,4.64000
,,,-0.06721600145,5.12000,4.60000
,,,-0.06720799953,5.12000,4.64000
,,,-0.06719999760,5.12000,4.64000
,,,-0.06719200313,5.12000,4.64000
,,,-0.06718400121,5.12000,4.64000
,,,-0.06717599928,5.12000,4.64000
,,,-0.06716799736,5.12000,4.60000
,,,-0.06716000289,5.12000,4.64000
,,,-0.06715200096,5.12000,4.64000
,,,-0.06714399904,5.12000,4.64000
,,,-0.06713599712,5.12000,4.60000
,,,-0.06712800264,5.12000,4.64000
,,,-0.06712000072,5.12000,4.64000
,,,-0.06711199880,5.16000,4.64000
,,,-0.06710399687,5.12000,4.64000
,,,-0.06709600240,5.12000,4.64000
,,,-0.06708800048,5.12000,4.64000
,,,-0.06707999855,5.12000,4.60000
,,,-0.06707199663,5.12000,4.64000
,,,-0.06706400216,5.12000,4.60000
,,,-0.06705600023,5.12000,4.64000
,,,-0.06704799831,5.12000,4.64000
,,,-0.06703999639,5.12000,4.64000
,,,-0.06703200191,5.12000,4.60000
,,,-0.06702399999,5.12000,4.64000
,,,-0.06701599807,5.12000,4.64000
,,,-0.06700799614,5.12000,4.64000
,,,-0.06700000167,5.12000,4.64000
,,,-0.06699199975,5.12000,4.64000
,,,-0.06698399782,5.12000,4.64000
,,,-0.06697600335,5.12000,4.64000
,,,-0.06696800143,5.12000,4.64000
,,,-0.06695999950,5.12000,4.64000
,,,-0.06695199758,5.12000,4.64000
,,,-0.06694400311,5.12000,4.64000
,,,-0.06693600118,5.12000,4.64000
,,,-0.06692799926,5.12000,4.60000
,,,-0.06691999733,5.12000,4.64000
,,,-0.06691200286,5.12000,4.60000
,,,-0.06690400094,5.12000,4.64000
,,,-0.06689599901,5.12000,4.64000
,,,-0.06688799709,5.12000,4.60000
,,,-0.06688000262,5.12000,4.64000
,,,-0.06687200069,5.12000,4.64000
,,,-0.06686399877,5.12000,4.60000
,,,-0.06685599685,5.12000,4.64000
,,,-0.06684800237,5.12000,4.64000
,,,-0.06684000045,5.12000,4.64000
,,,-0.06683199853,5.12000,4.64000
,,,-0.06682399660,5.12000,4.60000
,,,-0.06681600213,5.12000,4.64000
,,,-0.06680800021,5.12000,4.60000
,,,-0.06679999828,5.12000,4.60000
,,,-0.06679199636,5.12000,4.60000
,,,-0.06678400189,5.12000,4.64000
,,,-0.06677599996,5.16000,4.60000
,,,-0.06676799804,5.12000,4.64000
,,,-0.06675999612,5.12000,4.60000
,,,-0.06675200164,5.12000,4.64000
,,,-0.06674399972,5.12000,4.60000
,,,-0.06673599780,5.12000,4.64000
,,,-0.06672800332,5.12000,4.60000
,,,-0.06672000140,5.12000,4.64000
,,,-0.06671199948,5.12000,4.64000
,,,-0.06670399755,5.12000,4.60000
,,,-0.06669600308,5.12000,4.64000
,,,-0.06668800116,5.12000,4.60000
,,,-0.06667999923,5.12000,4.60000
,,,-0.06667199731,5.12000,4.60000
,,,-0.06666400284,5.12000,4.60000
,,,-0.06665600091,5.12000,4.60000
,,,-0.06664799899,5.12000,4.64000
,,,-0.06663999707,5.12000,4.60000
,,,-0.06663200259,5.12000,4.64000
,,,-0.06662400067,5.12000,4.60000
,,,-0.06661599874,5.12000,4.60000
,,,-0.06660799682,5.12000,4.60000
,,,-0.06660000235,5.12000,4.60000
,,,-0.06659200042,5.12000,4.60000
,,,-0.06658399850,5.12000,4.60000
,,,-0.06657599658,5.12000,4.64000
,,,-0.06656800210,5.12000,4.56000
,,,-0.06656000018,5.12000,4.60000
,,,-0.06655199826,5.12000,4.60000
,,,-0.06654399633,5.12000,4.56000
,,,-0.06653600186,5.08000,4.60000
,,,-0.06652799994,5.12000,4.60000
,,,-0.06651999801,5.12000,4.60000
,,,-0.06651200354,5.12000,4.60000
,,,-0.06650400162,5.12000,4.60000
,,,-0.06649599969,5.12000,4.60000
,,,-0.06648799777,5.12000,4.60000
,,,-0.06648000330,5.12000,4.60000
,,,-0.06647200137,5.12000,4.60000
,,,-0.06646399945,5.12000,4.60000
,,,-0.06645599753,5.12000,4.56000
,,,-0.06644800305,5.12000,4.60000
,,,-0.06644000113,5.12000,4.60000
,,,-0.06643199921,5.12000,4.60000
,,,-0.06642399728,5.12000,4.60000
,,,-0.06641600281,5.12000,4.60000
,,,-0.06640800089,5.12000,4.60000
,,,-0.06639999896,5.12000,4.60000
,,,-0.06639199704,5.12000,4.60000
,,,-0.06638400257,5.12000,4.60000
,,,-0.06637600064,5.16000,4.60000
,,,-0.06636799872,5.12000,4.60000
,,,-0.06635999680,5.12000,4.60000
,,,-0.06635200232,5.12000,4.60000
,,,-0.06634400040,5.12000,4.60000
,,,-0.06633599848,5.12000,4.60000
,,,-0.06632799655,5.12000,4.60000
,,,-0.06632000208,5.12000,4.56000
,,,-0.06631200016,5.12000,4.60000
,,,-0.06630399823,5.12000,4.60000
,,,-0.06629599631,5.12000,4.60000
,,,-0.06628800184,5.12000,4.56000
,,,-0.06627999991,5.12000,4.56000
,,,-0.06627199799,5.12000,4.60000
,,,-0.06626400352,5.12000,4.56000
,,,-0.06625600159,5.12000,4.56000
,,,-0.06624799967,5.16000,4.60000
,,,-0.06623999774,5.12000,4.60000
,,,-0.06623200327,5.16000,4.56000
,,,-0.06622400135,5.12000,4.56000
,,,-0.06621599942,5.12000,4.60000
,,,-0.06620799750,5.12000,4.60000
,,,-0.06620000303,5.12000,4.60000
,,,-0.06619200110,5.12000,4.60000
,,,-0.06618399918,5.12000,4.56000
,,,-0.06617599726,5.16000,4.60000
,,,-0.06616800278,5.12000,4.56000
,,,-0.06616000086,5.12000,4.60000
,,,-0.06615199894,5.12000,4.52000
,,,-0.06614399701,5.12000,4.56000
,,,-0.06613600254,5.12000,4.60000
,,,-0.06612800062,5.12000,4.56000
,,,-0.06611999869,5.12000,4.60000
,,,-0.06611199677,5.12000,4.60000
,,,-0.06610400230,5.12000,4.60000
,,,-0.06609600037,5.12000,4.60000
,,,-0.06608799845,5.12000,4.60000
,,,-0.06607999653,5.16000,4.52000
,,,-0.06607200205,5.12000,4.60000
,,,-0.06606400013,5.12000,4.60000
,,,-0.06605599821,5.12000,4.56000
,,,-0.06604799628,5.12000,4.56000
,,,-0.06604000181,5.12000,4.56000
,,,-0.06603199989,5.12000,4.56000
,,,-0.06602399796,5.12000,4.56000
,,,-0.06601600349,5.12000,4.56000
,,,-0.06600800157,5.12000,4.56000
,,,-0.06599999964,5.12000,4.56000
,,,-0.06599199772,5.12000,4.56000
,,,-0.06598400325,5.12000,4.56000
,,,-0.06597600132,5.12000,4.60000
,,,-0.06596799940,5.12000,4.56000
,,,-0.06595999748,5.12000,4.52000
,,,-0.06595200300,5.12000,4.56000
,,,-0.06594400108,5.12000,4.56000
,,,-0.06593599916,5.12000,4.56000
,,,-0.06592799723,5.16000,4.56000
,,,-0.06592000276,5.12000,4.60000
,,,-0.06591200083,5.12000,4.56000
,,,-0.06590399891,5.12000,4.56000
,,,-0.06589599699,5.12000,4.52000
,,,-0.06588800251,5.12000,4.56000
,,,-0.06588000059,5.12000,4.56000
,,,-0.06587199867,5.12000,4.56000
,,,-0.06586399674,5.12000,4.56000
,,,-0.06585600227,5.12000,4.56000
,,,-0.06584800035,5.12000,4.56000
,,,-0.06583999842,5.12000,4.56000
,,,-0.06583199650,5.12000,4.56000
,,,-0.06582400203,5.12000,4.56000
,,,-0.06581600010,5.12000,4.56000
,,,-0.06580799818,5.12000,4.56000
,,,-0.06579999626,5.12000,4.56000
,,,-0.06579200178,5.12000,4.56000
,,,-0.06578399986,5.12000,4.56000
,,,-0.06577599794,5.12000,4.56000
,,,-0.06576800346,5.12000,4.56000
,,,-0.06576000154,5.12000,4.56000
,,,-0.06575199962,5.12000,4.56000
,,,-0.06574399769,5.12000,4.60000
,,,-0.06573600322,5.12000,4.56000
,,,-0.06572800130,5.12000,4.56000
,,,-0.06571999937,5.12000,4.56000
,,,-0.06571199745,5.12000,4.56000
,,,-0.06570400298,5.12000,4.56000
,,,-0.06569600105,5.12000,4.56000
,,,-0.06568799913,5.12000,4.56000
,,,-0.06567999721,5.12000,4.56000
,,,-0.06567200273,5.12000,4.56000
,,,-0.06566400081,5.12000,4.56000
,,,-0.06565599889,5.12000,4.52000
,,,-0.06564799696,5.12000,4.52000
,,,-0.06564000249,5.12000,4.52000
,,,-0.06563200057,5.12000,4.56000
,,,-0.06562399864,5.12000,4.56000
,,,-0.06561599672,5.12000,4.56000
,,,-0.06560800225,5.12000,4.52000
,,,-0.06560000032,5.12000,4.56000
,,,-0.06559199840,5.12000,4.52000
,,,-0.06558399647,5.12000,4.56000
,,,-0.06557600200,5.12000,4.56000
,,,-0.06556800008,5.12000,4.52000
,,,-0.06555999815,5.12000,4.52000
,,,-0.06555199623,5.12000,4.56000
,,,-0.06554400176,5.12000,4.52000
,,,-0.06553599983,5.12000,4.56000
,,,-0.06552799791,5.12000,4.56000
,,,-0.06552000344,5.12000,4.56000
,,,-0.06551200151,5.12000,4.56000
,,,-0.06550399959,5.12000,4.52000
,,,-0.06549599767,5.12000,4.52000
,,,-0.06548800319,5.12000,4.56000
,,,-0.06548000127,5.12000,4.56000
,,,-0.06547199935,5.12000,4.52000
,,,-0.06546399742,5.12000,4.52000
,,,-0.06545600295,5.12000,4.52000
,,,-0.06544800103,5.12000,4.56000
,,,-0.06543999910,5.12000,4.52000
,,,-0.06543199718,5.12000,4.52000
,,,-0.06542400271,5.12000,4.52000
,,,-0.06541600078,5.12000,4.52000
,,,-0.06540799886,5.12000,4.52000
,,,-0.06539999694,5.12000,4.56000
,,,-0.06539200246,5.16000,4.52000
,,,-0.06538400054,5.12000,4.56000
,,,-0.06537599862,5.12000,4.56000
,,,-0.06536799669,5.12000,4.52000
,,,-0.06536000222,5.12000,4.52000
,,,-0.06535200030,5.12000,4.56000
,,,-0.06534399837,5.12000,4.52000
,,,-0.06533599645,5.12000,4.52000
,,,-0.06532800198,5.12000,4.56000
,,,-0.06532000005,5.12000,4.52000
,,,-0.06531199813,5.12000,4.56000
,,,-0.06530399621,5.12000,4.52000
,,,-0.06529600173,5.12000,4.52000
,,,-0.06528799981,5.12000,4.52000
,,,-0.06527999789,5.12000,4.52000
,,,-0.06527200341,5.16000,4.52000
,,,-0.06526400149,5.12000,4.52000
,,,-0.06525599957,5.12000,4.52000
,,,-0.06524799764,5.12000,4.52000
,,,-0.06524000317,5.12000,4.56000
,,,-0.06523200125,5.12000,4.52000
,,,-0.06522399932,5.12000,4.52000
,,,-0.06521599740,5.12000,4.52000
,,,-0.06520800292,5.12000,4.52000
,,,-0.06520000100,5.12000,4.52000
,,,-0.06519199908,5.12000,4.52000
,,,-0.06518399715,5.12000,4.52000
,,,-0.06517600268,5.12000,4.52000
,,,-0.06516800076,5.12000,4.52000
,,,-0.06515999883,5.12000,4.52000
,,,-0.06515199691,5.12000,4.52000
,,,-0.06514400244,5.12000,4.52000
,,,-0.06513600051,5.12000,4.52000
,,,-0.06512799859,5.16000,4.52000
,,,-0.06511999667,5.12000,4.52000
,,,-0.06511200219,5.12000,4.52000
,,,-0.06510400027,5.12000,4.52000
,,,-0.06509599835,5.12000,4.52000
,,,-0.06508799642,5.12000,4.52000
,,,-0.06508000195,5.12000,4.48000
,,,-0.06507200003,5.12000,4.52000
,,,-0.06506399810,5.12000,4.48000
,,,-0.06505599618,5.12000,4.52000
,,,-0.06504800171,5.16000,4.52000
,,,-0.06503999978,5.12000,4.52000
,,,-0.06503199786,5.12000,4.52000
,,,-0.06502400339,5.12000,4.52000
,,,-0.06501600146,5.12000,4.52000
,,,-0.06500799954,5.12000,4.52000
,,,-0.06499999762,5.12000,4.56000
,,,-0.06499200314,5.12000,4.52000
,,,-0.06498400122,5.12000,4.52000
,,,-0.06497599930,5.12000,4.52000
,,,-0.06496799737,5.12000,4.52000
,,,-0.06496000290,5.12000,4.52000
,,,-0.06495200098,5.12000,4.52000
,,,-0.06494399905,5.12000,4.48000
,,,-0.06493599713,5.12000,4.52000
,,,-0.06492800266,5.12000,4.52000
,,,-0.06492000073,5.12000,4.52000
,,,-0.06491199881,5.16000,4.52000
,,,-0.06490399688,5.12000,4.52000
,,,-0.06489600241,5.12000,4.52000
,,,-0.06488800049,5.12000,4.48000
,,,-0.06487999856,5.12000,4.48000
,,,-0.06487199664,5.12000,4.48000
,,,-0.06486400217,5.12000,4.48000
,,,-0.06485600024,5.12000,4.52000
,,,-0.06484799832,5.12000,4.48000
,,,-0.06483999640,5.12000,4.52000
,,,-0.06483200192,5.12000,4.48000
,,,-0.06482400000,5.12000,4.52000
,,,-0.06481599808,5.12000,4.52000
,,,-0.06480799615,5.12000,4.52000
,,,-0.06480000168,5.12000,4.52000
,,,-0.06479199976,5.12000,4.48000
,,,-0.06478399783,5.12000,4.48000
,,,-0.06477600336,5.12000,4.52000
,,,-0.06476800144,5.12000,4.48000
,,,-0.06475999951,5.12000,4.48000
,,,-0.06475199759,5.12000,4.48000
,,,-0.06474400312,5.12000,4.52000
,,,-0.06473600119,5.12000,4.52000
,,,-0.06472799927,5.12000,4.52000
,,,-0.06471999735,5.08000,4.52000
,,,-0.06471200287,5.12000,4.52000
,,,-0.06470400095,5.12000,4.48000
,,,-0.06469599903,5.12000,4.52000
,,,-0.06468799710,5.12000,4.52000
,,,-0.06468000263,5.12000,4.48000
,,,-0.06467200071,5.12000,4.48000
,,,-0.06466399878,5.12000,4.52000
,,,-0.06465599686,5.12000,4.48000
,,,-0.06464800239,5.12000,4.52000
,,,-0.06464000046,5.16000,4.48000
,,,-0.06463199854,5.12000,4.52000
,,,-0.06462399662,5.12000,4.52000
,,,-0.06461600214,5.12000,4.52000
,,,-0.06460800022,5.12000,4.48000
,,,-0.06459999830,5.16000,4.48000
,,,-0.06459199637,5.12000,4.48000
,,,-0.06458400190,5.12000,4.52000
,,,-0.06457599998,5.12000,4.52000
,,,-0.06456799805,5.12000,4.52000
,,,-0.06455999613,5.12000,4.52000
,,,-0.06455200166,5.12000,4.52000
,,,-0.06454399973,5.12000,4.48000
,,,-0.06453599781,5.12000,4.48000
,,,-0.06452800333,5.08000,4.52000
,,,-0.06452000141,5.12000,4.52000
,,,-0.06451199949,5.12000,4.52000
,,,-0.06450399756,5.12000,4.52000
,,,-0.06449600309,5.12000,4.48000
,,,-0.06448800117,5.12000,4.48000
,,,-0.06447999924,5.12000,4.52000
,,,-0.06447199732,5.12000,4.48000
,,,-0.06446400285,5.08000,4.48000
,,,-0.06445600092,5.12000,4.48000
,,,-0.06444799900,5.12000,4.48000
,,,-0.06443999708,5.12000,4.52000
,,,-0.06443200260,5.12000,4.48000
,,,-0.06442400068,5.12000,4.48000
,,,-0.06441599876,5.12000,4.48000
,,,-0.06440799683,5.12000,4.48000
,,,-0.06440000236,5.12000,4.48000
,,,-0.06439200044,5.08000,4.48000
,,,-0.06438399851,5.12000,4.48000
,,,-0.06437599659,5.12000,4.48000
,,,-0.06436800212,5.12000,4.48000
,,,-0.06436000019,5.12000,4.52000
,,,-0.06435199827,5.12000,4.48000
,,,-0.06434399635,5.12000,4.48000
,,,-0.06433600187,5.12000,4.48000
,,,-0.06432799995,5.12000,4.48000
,,,-0.06431999803,5.12000,4.48000
,,,-0.06431200355,5.08000,4.48000
,,,-0.06430400163,5.12000,4.48000
,,,-0.06429599971,5.12000,4.48000
,,,-0.06428799778,5.12000,4.48000
,,,-0.06428000331,5.12000,4.48000
,,,-0.06427200139,5.12000,4.52000
,,,-0.06426399946,5.12000,4.48000
,,,-0.06425599754,5.12000,4.48000
,,,-0.06424800307,5.12000,4.48000
,,,-0.06424000114,5.12000,4.48000
,,,-0.06423199922,5.12000,4.52000
,,,-0.06422399729,5.12000,4.52000
,,,-0.06421600282,5.12000,4.48000
,,,-0.06420800090,5.12000,4.48000
,,,-0.06419999897,5.12000,4.48000
,,,-0.06419199705,5.12000,4.48000
,,,-0.06418400258,5.12000,4.44000
,,,-0.06417600065,5.12000,4.48000
,,,-0.06416799873,5.12000,4.48000
,,,-0.06415999681,5.12000,4.48000
,,,-0.06415200233,5.12000,4.44000
,,,-0.06414400041,5.08000,4.44000
,,,-0.06413599849,5.12000,4.52000
,,,-0.06412799656,5.12000,4.44000
,,,-0.06412000209,5.12000,4.48000
,,,-0.06411200017,5.12000,4.48000
,,,-0.06410399824,5.12000,4.48000
,,,-0.06409599632,5.12000,4.48000
,,,-0.06408800185,5.12000,4.48000
,,,-0.06407999992,5.12000,4.48000
,,,-0.06407199800,5.12000,4.48000
,,,-0.06406400353,5.12000,4.44000
,,,-0.06405600160,5.12000,4.48000
,,,-0.06404799968,5.12000,4.44000
,,,-0.06403999776,5.12000,4.44000
,,,-0.06403200328,5.12000,4.48000
,,,-0.06402400136,5.16000,4.48000
,,,-0.06401599944,5.12000,4.44000
,,,-0.06400799751,5.12000,4.48000
,,,-0.06400000304,5.12000,4.44000
,,,-0.06399200112,5.12000,4.48000
,,,-0.06398399919,5.08000,4.48000
,,,-0.06397599727,5.12000,4.48000
,,,-0.06396800280,5.12000,4.48000
,,,-0.06396000087,5.12000,4.44000
,,,-0.06395199895,5.12000,4.44000
,,,-0.06394399703,5.12000,4.48000
,,,-0.06393600255,5.12000,4.44000
,,,-0.06392800063,5.12000,4.48000
,,,-0.06391999871,5.12000,4.48000
,,,-0.06391199678,5.12000,4.44000
,,,-0.06390400231,5.12000,4.48000
,,,-0.06389600039,5.12000,4.48000
,,,-0.06388799846,5.12000,4.44000
,,,-0.06387999654,5.12000,4.48000
,,,-0.06387200207,5.12000,4.48000
,,,-0.06386400014,5.12000,4.44000
,,,-0.06385599822,5.12000,4.48000
,,,-0.06384799629,5.12000,4.44000
,,,-0.06384000182,5.12000,4.44000
,,,-0.06383199990,5.12000,4.44000
,,,-0.06382399797,5.12000,4.44000
,,,-0.06381600350,5.12000,4.44000
,,,-0.06380800158,5.12000,4.48000
,,,-0.06379999965,5.12000,4.44000
,,,-0.06379199773,5.12000,4.44000
,,,-0.06378400326,5.12000,4.44000
,,,-0.06377600133,5.12000,4.44000
,,,-0.06376799941,5.12000,4.48000
,,,-0.06375999749,5.12000,4.44000
,,,-0.06375200301,5.12000,4.44000
,,,-0.06374400109,5.12000,4.44000
,,,-0.06373599917,5.12000,4.48000
,,,-0.06372799724,5.12000,4.44000
,,,-0.06372000277,5.12000,4.48000
,,,-0.06371200085,5.12000,4.44000
,,,-0.06370399892,5.12000,4.44000
,,,-0.06369599700,5.12000,4.44000
,,,-0.06368800253,5.12000,4.44000
,,,-0.06368000060,5.12000,4.44000
,,,-0.06367199868,5.12000,4.44000
,,,-0.06366399676,5.12000,4.44000
,,,-0.06365600228,5.12000,4.44000
,,,-0.06364800036,5.12000,4.44000
,,,-0.06363999844,5.12000,4.44000
,,,-0.06363199651,5.12000,4.40000
,,,-0.06362400204,5.12000,4.40000
,,,-0.06361600012,5.12000,4.48000
,,,-0.06360799819,5.12000,4.44000
,,,-0.06359999627,5.12000,4.44000
,,,-0.06359200180,5.12000,4.44000
,,,-0.06358399987,5.12000,4.48000
,,,-0.06357599795,5.12000,4.44000
,,,-0.06356800348,5.12000,4.44000
,,,-0.06356000155,5.12000,4.44000
,,,-0.06355199963,5.12000,4.48000
,,,-0.06354399770,5.12000,4.44000
,,,-0.06353600323,5.08000,4.44000
,,,-0.06352800131,5.12000,4.44000
,,,-0.06351999938,5.12000,4.44000
,,,-0.06351199746,5.12000,4.44000
,,,-0.06350400299,5.12000,4.44000
,,,-0.06349600106,5.12000,4.44000
,,,-0.06348799914,5.12000,4.44000
,,,-0.06347999722,5.12000,4.44000
,,,-0.06347200274,5.12000,4.44000
,,,-0.06346400082,5.12000,4.44000
,,,-0.06345599890,5.08000,4.40000
,,,-0.06344799697,5.12000,4.44000
,,,-0.06344000250,5.12000,4.44000
,,,-0.06343200058,5.12000,4.44000
,,,-0.06342399865,5.12000,4.44000
,,,-0.06341599673,5.12000,4.44000
,,,-0.06340800226,5.12000,4.44000
,,,-0.06340000033,5.12000,4.44000
,,,-0.06339199841,5.12000,4.44000
,,,-0.06338399649,5.12000,4.44000
,,,-0.06337600201,5.12000,4.44000
,,,-0.06336800009,5.12000,4.44000
,,,-0.06335999817,5.12000,4.44000
,,,-0.06335199624,5.12000,4.44000
,,,-0.06334400177,5.12000,4.48000
,,,-0.06333599985,5.08000,4.44000
,,,-0.06332799792,5.12000,4.44000
,,,-0.06332000345,5.12000,4.44000
,,,-0.06331200153,5.12000,4.44000
,,,-0.06330399960,5.12000,4.40000
,,,-0.06329599768,5.08000,4.44000
,,,-0.06328800321,5.12000,4.44000
,,,-0.06328000128,5.12000,4.44000
,,,-0.06327199936,5.12000,4.44000
,,,-0.06326399744,5.12000,4.44000
,,,-0.06325600296,5.12000,4.44000
,,,-0.06324800104,5.12000,4.44000
,,,-0.06323999912,5.12000,4.44000
,,,-0.06323199719,5.12000,4.44000
,,,-0.06322400272,5.12000,4.40000
,,,-0.06321600080,5.12000,4.40000
,,,-0.06320799887,5.08000,4.44000
,,,-0.06319999695,5.12000,4.40000
,,,-0.06319200248,5.12000,4.44000
,,,-0.06318400055,5.08000,4.44000
,,,-0.06317599863,5.12000,4.44000
,,,-0.06316799670,5.12000,4.44000
,,,-0.06316000223,5.12000,4.40000
,,,-0.06315200031,5.12000,4.44000
,,,-0.06314399838,5.12000,4.44000
,,,-0.06313599646,5.12000,4.44000
,,,-0.06312800199,5.12000,4.44000
,,,-0.06312000006,5.12000,4.40000
,,,-0.06311199814,5.12000,4.40000
,,,-0.06310399622,5.12000,4.40000
,,,-0.06309600174,5.12000,4.40000
,,,-0.06308799982,5.08000,4.44000
,,,-0.06307999790,5.12000,4.40000
,,,-0.06307200342,5.12000,4.44000
,,,-0.06306400150,5.12000,4.40000
,,,-0.06305599958,5.12000,4.40000
,,,-0.06304799765,5.12000,4.40000
,,,-0.06304000318,5.12000,4.44000
,,,-0.06303200126,5.08000,4.40000
,,,-0.06302399933,5.12000,4.40000
,,,-0.06301599741,5.12000,4.44000
,,,-0.06300800294,5.12000,4.40000
,,,-0.06300000101,5.12000,4.40000
,,,-0.06299199909,5.08000,4.40000
,,,-0.06298399717,5.12000,4.40000
,,,-0.06297600269,5.12000,4.40000
,,,-0.06296800077,5.12000,4.44000
,,,-0.06295999885,5.08000,4.40000
,,,-0.06295199692,5.12000,4.36000
,,,-0.06294400245,5.08000,4.40000
,,,-0.06293600053,5.12000,4.44000
,,,-0.06292799860,5.12000,4.44000
,,,-0.06291999668,5.12000,4.40000
,,,-0.06291200221,5.12000,4.40000
,,,-0.06290400028,5.12000,4.40000
,,,-0.06289599836,5.08000,4.44000
,,,-0.06288799644,5.12000,4.40000
,,,-0.06288000196,5.12000,4.40000
,,,-0.06287200004,5.12000,4.40000
,,,-0.06286399812,5.12000,4.40000
,,,-0.06285599619,5.12000,4.40000
,,,-0.06284800172,5.12000,4.40000
,,,-0.06283999979,5.12000,4.40000
,,,-0.06283199787,5.08000,4.44000
,,,-0.06282400340,5.12000,4.40000
,,,-0.06281600147,5.12000,4.40000
,,,-0.06280799955,5.12000,4.40000
,,,-0.06279999763,5.12000,4.40000
,,,-0.06279200315,5.12000,4.40000
,,,-0.06278400123,5.12000,4.40000
,,,-0.06277599931,5.12000,4.40000
,,,-0.06276799738,5.12000,4.44000
,,,-0.06276000291,5.12000,4.40000
,,,-0.06275200099,5.08000,4.40000
,,,-0.06274399906,5.12000,4.44000
,,,-0.06273599714,5.08000,4.40000
,,,-0.06272800267,5.08000,4.40000
,,,-0.06272000074,5.12000,4.36000
,,,-0.06271199882,5.12000,4.40000
,,,-0.06270399690,5.12000,4.44000
,,,-0.06269600242,5.12000,4.40000
,,,-0.06268800050,5.12000,4.44000
,,,-0.06267999858,5.08000,4.44000
,,,-0.06267199665,5.12000,4.44000
,,,-0.06266400218,5.12000,4.40000
,,,-0.06265600026,5.12000,4.40000
,,,-0.06264799833,5.12000,4.40000
,,,-0.06263999641,5.08000,4.40000
,,,-0.06263200194,5.12000,4.40000
,,,-0.06262400001,5.12000,4.40000
,,,-0.06261599809,5.12000,4.40000
,,,-0.06260799617,5.12000,4.40000
,,,-0.06260000169,5.12000,4.40000
,,,-0.06259199977,5.12000,4.40000
,,,-0.06258399785,5.12000,4.40000
,,,-0.06257600337,5.12000,4.44000
,,,-0.06256800145,5.12000,4.44000
,,,-0.06255999953,5.16000,4.40000
,,,-0.06255199760,5.12000,4.40000
,,,-0.06254400313,5.08000,4.40000
,,,-0.06253600121,5.12000,4.36000
,,,-0.06252799928,5.12000,4.40000
,,,-0.06251999736,5.12000,4.40000
,,,-0.06251200289,5.12000,4.40000
,,,-0.06250400096,5.08000,4.36000
,,,-0.06249599904,5.12000,4.40000
,,,-0.06248800084,5.12000,4.40000
,,,-0.06247999892,5.12000,4.40000
,,,-0.06247200072,5.12000,4.40000
,,,-0.06246399879,5.12000,4.40000
,,,-0.06245600060,5.12000,4.40000
,,,-0.06244799867,5.12000,4.40000
,,,-0.06244000047,5.12000,4.40000
,,,-0.06243199855,5.12000,4.40000
,,,-0.06242400035,5.12000,4.40000
,,,-0.06241599843,5.12000,4.40000
,,,-0.06240800023,5.12000,4.40000
,,,-0.06239999831,5.12000,4.40000
,,,-0.06239200011,5.12000,4.36000
,,,-0.06238399819,5.12000,4.40000
,,,-0.06237599999,5.12000,4.40000
,,,-0.06236799806,5.12000,4.36000
,,,-0.06235999987,5.12000,4.36000
,,,-0.06235200167,5.12000,4.40000
,,,-0.06234399974,5.12000,4.44000
,,,-0.06233600155,5.12000,4.40000
,,,-0.06232799962,5.12000,4.36000
,,,-0.06232000142,5.12000,4.40000
,,,-0.06231199950,5.12000,4.36000
,,,-0.06230400130,5.12000,4.40000
,,,-0.06229599938,5.12000,4.40000
,,,-0.06228800118,5.08000,4.40000
,,,-0.06227999926,5.12000,4.40000
,,,-0.06227200106,5.12000,4.40000
,,,-0.06226399913,5.08000,4.40000
,,,-0.06225600094,5.12000,4.40000
,,,-0.06224799901,5.12000,4.40000
,,,-0.06224000081,5.12000,4.40000
,,,-0.06223199889,5.12000,4.36000
,,,-0.06222400069,5.12000,4.40000
,,,-0.06221599877,5.12000,4.40000
,,,-0.06220800057,5.12000,4.40000
,,,-0.06219999865,5.12000,4.36000
,,,-0.06219200045,5.12000,4.40000
,,,-0.06218399853,5.12000,4.40000
,,,-0.06217600033,5.12000,4.40000
,,,-0.06216799840,5.12000,4.40000
,,,-0.06216000021,5.12000,4.40000
,,,-0.06215199828,5.12000,4.40000
,,,-0.06214400008,5.12000,4.40000
,,,-0.06213599816,5.12000,4.40000
,,,-0.06212799996,5.12000,4.36000
,,,-0.06211999804,5.12000,4.40000
,,,-0.06211199984,5.12000,4.36000
,,,-0.06210400164,5.12000,4.40000
,,,-0.06209599972,5.12000,4.36000
,,,-0.06208800152,5.12000,4.40000
,,,-0.06207999960,5.12000,4.40000
,,,-0.06207200140,5.12000,4.40000
,,,-0.06206399947,5.12000,4.36000
,,,-0.06205600128,5.12000,4.40000
,,,-0.06204799935,5.12000,4.36000
,,,-0.06204000115,5.12000,4.40000
,,,-0.06203199923,5.12000,4.40000
,,,-0.06202400103,5.08000,4.40000
,,,-0.06201599911,5.12000,4.40000
,,,-0.06200800091,5.12000,4.36000
,,,-0.06199999899,5.12000,4.40000
,,,-0.06199200079,5.12000,4.40000
,,,-0.06198399886,5.12000,4.36000
,,,-0.06197600067,5.12000,4.36000
,,,-0.06196799874,5.12000,4.36000
,,,-0.06196000054,5.08000,4.40000
,,,-0.06195199862,5.12000,4.36000
,,,-0.06194400042,5.12000,4.40000
,,,-0.06193599850,5.12000,4.40000
,,,-0.06192800030,5.08000,4.40000
,,,-0.06191999838,5.12000,4.40000
,,,-0.06191200018,5.12000,4.40000
,,,-0.06190399826,5.08000,4.40000
,,,-0.06189600006,5.08000,4.40000
,,,-0.06188799813,5.12000,4.36000
,,,-0.06187999994,5.12000,4.36000
,,,-0.06187199801,5.12000,4.36000
,,,-0.06186399981,5.12000,4.40000
,,,-0.06185600162,5.12000,4.40000
,,,-0.06184799969,5.12000,4.40000
,,,-0.06184000149,5.12000,4.40000
,,,-0.06183199957,5.12000,4.36000
,,,-0.06182400137,5.12000,4.40000
,,,-0.06181599945,5.12000,4.40000
,,,-0.06180800125,5.12000,4.40000
,,,-0.06179999933,5.12000,4.36000
,,,-0.06179200113,5.08000,4.36000
,,,-0.06178399920,5.08000,4.36000
,,,-0.06177600101,5.12000,4.40000
,,,-0.06176799908,5.12000,4.40000
,,,-0.06176000088,5.12000,4.36000
,,,-0.06175199896,5.12000,4.40000
,,,-0.06174400076,5.12000,4.36000
,,,-0.06173599884,5.12000,4.40000
,,,-0.06172800064,5.12000,4.40000
,,,-0.06171999872,5.08000,4.36000
,,,-0.06171200052,5.08000,4.36000
,,,-0.06170399860,5.12000,4.36000
,,,-0.06169600040,5.12000,4.36000
,,,-0.06168799847,5.12000,4.36000
,,,-0.06168000028,5.12000,4.36000
,,,-0.06167199835,5.12000,4.36000
,,,-0.06166400015,5.12000,4.36000
,,,-0.06165599823,5.08000,4.36000
,,,-0.06164800003,5.12000,4.40000
,,,-0.06163999811,5.12000,4.36000
,,,-0.06163199991,5.12000,4.36000
,,,-0.06162399799,5.12000,4.40000
,,,-0.06161599979,5.12000,4.36000
,,,-0.06160800159,5.12000,4.40000
,,,-0.06159999967,5.12000,4.36000
,,,-0.06159200147,5.12000,4.40000
,,,-0.06158399954,5.12000,4.36000
,,,-0.06157600135,5.12000,4.36000
,,,-0.06156799942,5.12000,4.40000
,,,-0.06156000122,5.12000,4.36000
,,,-0.06155199930,5.12000,4.40000
,,,-0.06154400110,5.12000,4.36000
,,,-0.06153599918,5.12000,4.40000
,,,-0.06152800098,5.12000,4.36000
,,,-0.06151999906,5.08000,4.36000
,,,-0.06151200086,5.12000,4.36000
,,,-0.06150399894,5.12000,4.36000
,,,-0.06149600074,5.12000,4.36000
,,,-0.06148799881,5.12000,4.36000
,,,-0.06148000062,5.08000,4.36000
,,,-0.06147199869,5.08000,4.36000
,,,-0.06146400049,5.12000,4.40000
,,,-0.06145599857,5.12000,4.36000
,,,-0.06144800037,5.12000,4.40000
,,,-0.06143999845,5.12000,4.40000
,,,-0.06143200025,5.12000,4.36000
,,,-0.06142399833,5.12000,4.36000
,,,-0.06141600013,5.12000,4.36000
,,,-0.06140799820,5.08000,4.36000
,,,-0.06140000001,5.12000,4.36000
,,,-0.06139199808,5.12000,4.36000
,,,-0.06138399988,5.12000,4.36000
,,,-0.06137600169,5.12000,4.40000
,,,-0.06136799976,5.08000,4.36000
,,,-0.06136000156,5.12000,4.36000
,,,-0.06135199964,5.08000,4.36000
,,,-0.06134400144,5.12000,4.40000
,,,-0.06133599952,5.12000,4.36000
,,,-0.06132800132,5.12000,4.40000
,,,-0.06131999940,5.12000,4.36000
,,,-0.06131200120,5.12000,4.36000
,,,-0.06130399927,5.12000,4.36000
,,,-0.06129600108,5.12000,4.36000
,,,-0.06128799915,5.12000,4.36000
,,,-0.06128000095,5.08000,4.36000
,,,-0.06127199903,5.12000,4.36000
,,,-0.06126400083,5.08000,4.36000
,,,-0.06125599891,5.12000,4.36000
,,,-0.06124800071,5.08000,4.36000
,,,-0.06123999879,5.12000,4.36000
,,,-0.06123200059,5.12000,4.36000
,,,-0.06122399867,5.12000,4.36000
,,,-0.06121600047,5.12000,4.36000
,,,-0.06120799854,5.12000,4.36000
,,,-0.06120000035,5.12000,4.36000
,,,-0.06119199842,5.12000,4.36000
,,,-0.06118400022,5.12000,4.36000
,,,-0.06117599830,5.12000,4.36000
,,,-0.06116800010,5.12000,4.36000
,,,-0.06115999818,5.12000,4.36000
,,,-0.06115199998,5.12000,4.36000
,,,-0.06114399806,5.12000,4.36000
,,,-0.06113599986,5.12000,4.36000
,,,-0.06112800166,5.12000,4.36000
,,,-0.06111999974,5.12000,4.40000
,,,-0.06111200154,5.12000,4.36000
,,,-0.06110399961,5.12000,4.36000
,,,-0.06109600142,5.08000,4.36000
,,,-0.06108799949,5.08000,4.36000
,,,-0.06108000129,5.12000,4.36000
,,,-0.06107199937,5.12000,4.36000
,,,-0.06106400117,5.08000,4.36000
,,,-0.06105599925,5.12000,4.36000
,,,-0.06104800105,5.12000,4.40000
,,,-0.06103999913,5.12000,4.36000
,,,-0.06103200093,5.12000,4.36000
,,,-0.06102399901,5.08000,4.36000
,,,-0.06101600081,5.12000,4.36000
,,,-0.06100799888,5.12000,4.36000
,,,-0.06100000069,5.08000,4.36000
,,,-0.06099199876,5.12000,4.36000
,,,-0.06098400056,5.08000,4.36000
,,,-0.06097599864,5.08000,4.40000
,,,-0.06096800044,5.12000,4.36000
,,,-0.06095999852,5.12000,4.36000
,,,-0.06095200032,5.12000,4.36000
,,,-0.06094399840,5.12000,4.36000
,,,-0.06093600020,5.08000,4.36000
,,,-0.06092799827,5.12000,4.36000
,,,-0.06092000008,5.12000,4.36000
,,,-0.06091199815,5.08000,4.36000
,,,-0.06090399995,5.12000,4.36000
,,,-0.06089599803,5.12000,4.36000
,,,-0.06088799983,5.08000,4.36000
,,,-0.06088000163,5.12000,4.36000
,,,-0.06087199971,5.12000,4.36000
,,,-0.06086400151,5.12000,4.36000
,,,-0.06085599959,5.12000,4.36000
,,,-0.06084800139,5.12000,4.40000
,,,-0.06083999947,5.12000,4.36000
,,,-0.06083200127,5.12000,4.40000
,,,-0.06082399935,5.12000,4.36000
,,,-0.06081600115,5.12000,4.36000
,,,-0.06080799922,5.12000,4.36000
,,,-0.06080000103,5.12000,4.36000
,,,-0.06079199910,5.12000,4.36000
,,,-0.06078400090,5.12000,4.40000
,,,-0.06077599898,5.08000,4.36000
,,,-0.06076800078,5.12000,4.36000
,,,-0.06075999886,5.12000,4.36000
,,,-0.06075200066,5.12000,4.36000
,,,-0.06074399874,5.12000,4.36000
,,,-0.06073600054,5.08000,4.36000
,,,-0.06072799861,5.08000,4.36000
,,,-0.06072000042,5.12000,4.36000
,,,-0.06071199849,5.12000,4.36000
,,,-0.06070400029,5.12000,4.36000
,,,-0.06069599837,5.08000,4.36000
,,,-0.06068800017,5.12000,4.36000
,,,-0.06067999825,5.12000,4.36000
,,,-0.06067200005,5.12000,4.36000
,,,-0.06066399813,5.12000,4.36000
,,,-0.06065599993,5.12000,4.36000
,,,-0.06064799801,5.12000,4.36000
,,,-0.06063999981,5.08000,4.36000
,,,-0.06063200161,5.12000,4.36000
,,,-0.06062399969,5.12000,4.36000
,,,-0.06061600149,5.12000,4.36000
,,,-0.06060799956,5.08000,4.36000
,,,-0.06060000136,5.12000,4.36000
,,,-0.06059199944,5.08000,4.36000
,,,-0.06058400124,5.12000,4.40000
,,,-0.06057599932,5.08000,4.36000
,,,-0.06056800112,5.12000,4.36000
,,,-0.06055999920,5.12000,4.36000
,,,-0.06055200100,5.12000,4.36000
,,,-0.06054399908,5.12000,4.36000
,,,-0.06053600088,5.08000,4.36000
,,,-0.06052799895,5.12000,4.36000
,,,-0.06052000076,5.12000,4.36000
,,,-0.06051199883,5.12000,4.36000
,,,-0.06050400063,5.12000,4.36000
,,,-0.06049599871,5.12000,4.36000
,,,-0.06048800051,5.08000,4.36000
,,,-0.06047999859,5.12000,4.36000
,,,-0.06047200039,5.12000,4.36000
,,,-0.06046399847,5.12000,4.36000
,,,-0.06045600027,5.08000,4.36000
,,,-0.06044799834,5.12000,4.36000
,,,-0.06044000015,5.08000,4.36000
,,,-0.06043199822,5.12000,4.36000
,,,-0.06042400002,5.12000,4.36000
,,,-0.06041599810,5.08000,4.36000
,,,-0.06040799990,5.12000,4.36000
,,,-0.06040000170,5.08000,4.36000
,,,-0.06039199978,5.08000,4.36000
,,,-0.06038400158,5.08000,4.36000
,,,-0.06037599966,5.12000,4.36000
,,,-0.06036800146,5.08000,4.36000
,,,-0.06035999954,5.12000,4.36000
,,,-0.06035200134,5.08000,4.36000
,,,-0.06034399942,5.12000,4.36000
,,,-0.06033600122,5.12000,4.36000
,,,-0.06032799929,5.08000,4.36000
,,,-0.06032000110,5.12000,4.36000
,,,-0.06031199917,5.12000,4.36000
,,,-0.06030400097,5.12000,4.36000
,,,-0.06029599905,5.08000,4.36000
,,,-0.06028800085,5.12000,4.36000
,,,-0.06027999893,5.12000,4.36000
,,,-0.06027200073,5.12000,4.36000
,,,-0.06026399881,5.12000,4.36000
,,,-0.06025600061,5.12000,4.36000
,,,-0.06024799868,5.08000,4.36000
,,,-0.06024000049,5.12000,4.36000
,,,-0.06023199856,5.12000,4.36000
,,,-0.06022400036,5.12000,4.36000
,,,-0.06021599844,5.12000,4.36000
,,,-0.06020800024,5.12000,4.36000
,,,-0.06019999832,5.12000,4.36000
,,,-0.06019200012,5.12000,4.36000
,,,-0.06018399820,5.12000,4.36000
,,,-0.06017600000,5.08000,4.36000
,,,-0.06016799808,5.12000,4.36000
,,,-0.06015999988,5.08000,4.40000
,,,-0.06015200168,5.12000,4.36000
,,,-0.06014399976,5.12000,4.36000
,,,-0.06013600156,5.12000,4.36000
,,,-0.06012799963,5.12000,4.36000
,,,-0.06012000144,5.08000,4.36000
,,,-0.06011199951,5.12000,4.36000
,,,-0.06010400131,5.12000,4.36000
,,,-0.06009599939,5.12000,4.36000
,,,-0.06008800119,5.12000,4.36000
,,,-0.06007999927,5.08000,4.36000
,,,-0.06007200107,5.12000,4.36000
,,,-0.06006399915,5.12000,4.36000
,,,-0.06005600095,5.12000,4.36000
,,,-0.06004799902,5.12000,4.36000
,,,-0.06004000083,5.12000,4.36000
,,,-0.06003199890,5.12000,4.36000
,,,-0.06002400070,5.12000,4.36000
,,,-0.06001599878,5.12000,4.36000
,,,-0.06000800058,5.12000,4.36000
,,,-0.05999999866,5.12000,4.36000
,,,-0.05999200046,5.12000,4.36000
,,,-0.05998399854,5.12000,4.36000
,,,-0.05997600034,5.12000,4.36000
,,,-0.05996799842,5.12000,4.36000
,,,-0.05996000022,5.12000,4.36000
,,,-0.05995199829,5.12000,4.36000
,,,-0.05994400010,5.12000,4.40000
,,,-0.05993599817,5.12000,4.36000
,,,-0.05992799997,5.12000,4.36000
,,,-0.05991999805,5.12000,4.36000
,,,-0.05991199985,5.08000,4.36000
,,,-0.05990400165,5.08000,4.36000
,,,-0.05989599973,5.08000,4.36000
,,,-0.05988800153,5.12000,4.36000
,,,-0.05987999961,5.12000,4.36000
,,,-0.05987200141,5.08000,4.36000
,,,-0.05986399949,5.12000,4.36000
,,,-0.05985600129,5.12000,4.36000
,,,-0.05984799936,5.12000,4.36000
,,,-0.05984000117,5.12000,4.36000
,,,-0.05983199924,5.12000,4.36000
,,,-0.05982400104,5.12000,4.36000
,,,-0.05981599912,5.12000,4.36000
,,,-0.05980800092,5.12000,4.36000
,,,-0.05979999900,5.08000,4.36000
,,,-0.05979200080,5.12000,4.36000
,,,-0.05978399888,5.12000,4.36000
,,,-0.05977600068,5.12000,4.36000
,,,-0.05976799875,5.12000,4.36000
,,,-0.05976000056,5.12000,4.36000
,,,-0.05975199863,5.12000,4.36000
,,,-0.05974400043,5.08000,4.36000
,,,-0.05973599851,5.12000,4.36000
,,,-0.05972800031,5.08000,4.36000
,,,-0.05971999839,5.12000,4.40000
,,,-0.05971200019,5.12000,4.36000
,,,-0.05970399827,5.12000,4.36000
,,,-0.05969600007,5.12000,4.36000
,,,-0.05968799815,5.08000,4.36000
,,,-0.05967999995,5.12000,4.36000
,,,-0.05967199802,5.12000,4.36000
,,,-0.05966399983,5.12000,4.36000
,,,-0.05965600163,5.12000,4.36000
,,,-0.05964799970,5.12000,4.36000
,,,-0.05964000151,5.12000,4.36000
,,,-0.05963199958,5.08000,4.36000
,,,-0.05962400138,5.12000,4.36000
,,,-0.05961599946,5.12000,4.36000
,,,-0.05960800126,5.12000,4.36000
,,,-0.05959999934,5.12000,4.36000
,,,-0.05959200114,5.12000,4.36000
,,,-0.05958399922,5.12000,4.36000
,,,-0.05957600102,5.12000,4.36000
,,,-0.05956799909,5.12000,4.36000
,,,-0.05956000090,5.12000,4.36000
,,,-0.05955199897,5.12000,4.36000
,,,-0.05954400077,5.12000,4.36000
,,,-0.05953599885,5.12000,4.36000
,,,-0.05952800065,5.12000,4.36000
,,,-0.05951999873,5.12000,4.36000
,,,-0.05951200053,5.08000,4.36000
,,,-0.05950399861,5.12000,4.36000
,,,-0.05949600041,5.12000,4.36000
,,,-0.05948799849,5.12000,4.36000
,,,-0.05948000029,5.12000,4.36000
,,,-0.05947199836,5.12000,4.36000
,,,-0.05946400017,5.12000,4.36000
,,,-0.05945599824,5.12000,4.36000
,,,-0.05944800004,5.08000,4.36000
,,,-0.05943999812,5.12000,4.36000
,,,-0.05943199992,5.12000,4.36000
,,,-0.05942399800,5.12000,4.36000
,,,-0.05941599980,5.08000,4.36000
,,,-0.05940800160,5.12000,4.36000
,,,-0.05939999968,5.12000,4.36000
,,,-0.05939200148,5.12000,4.36000
,,,-0.05938399956,5.08000,4.36000
,,,-0.05937600136,5.12000,4.36000
,,,-0.05936799943,5.12000,4.36000
,,,-0.05936000124,5.12000,4.36000
,,,-0.05935199931,5.08000,4.36000
,,,-0.05934400111,5.12000,4.36000
,,,-0.05933599919,5.12000,4.36000
,,,-0.05932800099,5.12000,4.36000
,,,-0.05931999907,5.12000,4.36000
,,,-0.05931200087,5.12000,4.36000
,,,-0.05930399895,5.12000,4.36000
,,,-0.05929600075,5.12000,4.36000
,,,-0.05928799883,5.12000,4.36000
,,,-0.05928000063,5.12000,4.36000
,,,-0.05927199870,5.12000,4.36000
,,,-0.05926400051,5.12000,4.36000
,,,-0.05925599858,5.12000,4.36000
,,,-0.05924800038,5.12000,4.36000
,,,-0.05923999846,5.12000,4.36000
,,,-0.05923200026,5.12000,4.36000
,,,-0.05922399834,5.12000,4.36000
,,,-0.05921600014,5.08000,4.36000
,,,-0.05920799822,5.12000,4.36000
,,,-0.05920000002,5.12000,4.36000
,,,-0.05919199809,5.12000,4.36000
,,,-0.05918399990,5.08000,4.36000
,,,-0.05917600170,5.08000,4.36000
,,,-0.05916799977,5.12000,4.36000
,,,-0.05916000158,5.12000,4.36000
,,,-0.05915199965,5.12000,4.36000
,,,-0.05914400145,5.12000,4.36000
,,,-0.05913599953,5.12000,4.40000
,,,-0.05912800133,5.12000,4.36000
,,,-0.05911999941,5.12000,4.36000
,,,-0.05911200121,5.08000,4.36000
,,,-0.05910399929,5.12000,4.36000
,,,-0.05909600109,5.12000,4.36000
,,,-0.05908799917,5.12000,4.36000
,,,-0.05908000097,5.12000,4.36000
,,,-0.05907199904,5.08000,4.36000
,,,-0.05906400084,5.12000,4.36000
,,,-0.05905599892,5.12000,4.36000
,,,-0.05904800072,5.08000,4.36000
,,,-0.05903999880,5.08000,4.36000
,,,-0.05903200060,5.08000,4.36000
,,,-0.05902399868,5.12000,4.40000
,,,-0.05901600048,5.12000,4.36000
,,,-0.05900799856,5.08000,4.40000
,,,-0.05900000036,5.12000,4.36000
,,,-0.05899199843,5.12000,4.36000
,,,-0.05898400024,5.12000,4.36000
,,,-0.05897599831,5.08000,4.36000
,,,-0.05896800011,5.12000,4.36000
,,,-0.05895999819,5.12000,4.36000
,,,-0.05895199999,5.12000,4.36000
,,,-0.05894399807,5.12000,4.40000
,,,-0.05893599987,5.12000,4.36000
,,,-0.05892800167,5.12000,4.40000
,,,-0.05891999975,5.12000,4.36000
,,,-0.05891200155,5.12000,4.36000
,,,-0.05890399963,5.08000,4.36000
,,,-0.05889600143,5.08000,4.40000
,,,-0.05888799950,5.08000,4.36000
,,,-0.05888000131,5.12000,4.36000
,,,-0.05887199938,5.12000,4.36000
,,,-0.05886400118,5.12000,4.36000
,,,-0.05885599926,5.12000,4.36000
,,,-0.05884800106,5.12000,4.40000
,,,-0.05883999914,5.12000,4.40000
,,,-0.05883200094,5.12000,4.36000
,,,-0.05882399902,5.08000,4.36000
,,,-0.05881600082,5.12000,4.36000
,,,-0.05880799890,5.12000,4.36000
,,,-0.05880000070,5.12000,4.36000
,,,-0.05879199877,5.12000,4.36000
,,,-0.05878400058,5.12000,4.36000
,,,-0.05877599865,5.12000,4.36000
,,,-0.05876800045,5.12000,4.36000
,,,-0.05875999853,5.12000,4.40000
,,,-0.05875200033,5.12000,4.36000
,,,-0.05874399841,5.12000,4.36000
,,,-0.05873600021,5.12000,4.36000
,,,-0.05872799829,5.12000,4.40000
,,,-0.05872000009,5.12000,4.36000
,,,-0.05871199816,5.12000,4.36000
,,,-0.05870399997,5.12000,4.36000
,,,-0.05869599804,5.12000,4.40000
,,,-0.05868799984,5.12000,4.36000
,,,-0.05868000165,5.12000,4.36000
,,,-0.05867199972,5.12000,4.40000
,,,-0.05866400152,5.12000,4.36000
,,,-0.05865599960,5.12000,4.40000
,,,-0.05864800140,5.12000,4.36000
,,,-0.05863999948,5.12000,4.36000
,,,-0.05863200128,5.08000,4.36000
,,,-0.05862399936,5.12000,4.40000
,,,-0.05861600116,5.12000,4.36000
,,,-0.05860799924,5.12000,4.36000
,,,-0.05860000104,5.08000,4.36000
,,,-0.05859199911,5.12000,4.36000
,,,-0.05858400092,5.12000,4.40000
,,,-0.05857599899,5.12000,4.36000
,,,-0.05856800079,5.12000,4.36000
,,,-0.05855999887,5.08000,4.40000
,,,-0.05855200067,5.12000,4.40000
,,,-0.05854399875,5.12000,4.36000
,,,-0.05853600055,5.12000,4.40000
,,,-0.05852799863,5.08000,4.36000
,,,-0.05852000043,5.12000,4.36000
,,,-0.05851199850,5.12000,4.40000
,,,-0.05850400031,5.12000,4.40000
,,,-0.05849599838,5.08000,4.36000
,,,-0.05848800018,5.08000,4.40000
,,,-0.05847999826,5.12000,4.40000
,,,-0.05847200006,5.12000,4.40000
,,,-0.05846399814,5.08000,4.36000
,,,-0.05845599994,5.12000,4.40000
,,,-0.05844799802,5.12000,4.36000
,,,-0.05843999982,5.12000,4.40000
,,,-0.05843200162,5.12000,4.36000
,,,-0.05842399970,5.12000,4.36000
,,,-0.05841600150,5.12000,4.36000
,,,-0.05840799958,5.12000,4.36000
,,,-0.05840000138,5.12000,4.36000
,,,-0.05839199945,5.08000,4.40000
,,,-0.05838400126,5.12000,4.40000
,,,-0.05837599933,5.12000,4.40000
,,,-0.05836800113,5.12000,4.36000
,,,-0.05835999921,5.12000,4.40000
,,,-0.05835200101,5.12000,4.36000
,,,-0.05834399909,5.12000,4.36000
,,,-0.05833600089,5.12000,4.36000
,,,-0.05832799897,5.12000,4.40000
,,,-0.05832000077,5.12000,4.40000
,,,-0.05831199884,5.12000,4.36000
,,,-0.05830400065,5.12000,4.36000
,,,-0.05829599872,5.12000,4.40000
,,,-0.05828800052,5.12000,4.36000
,,,-0.05827999860,5.12000,4.36000
,,,-0.05827200040,5.12000,4.36000
,,,-0.05826399848,5.12000,4.36000
,,,-0.05825600028,5.12000,4.40000
,,,-0.05824799836,5.12000,4.40000
,,,-0.05824000016,5.12000,4.36000
,,,-0.05823199823,5.12000,4.36000
,,,-0.05822400004,5.12000,4.40000
,,,-0.05821599811,5.12000,4.40000
,,,-0.05820799991,5.12000,4.40000
,,,-0.05819999799,5.08000,4.40000
,,,-0.05819199979,5.12000,4.40000
,,,-0.05818400159,5.12000,4.40000
,,,-0.05817599967,5.12000,4.40000
,,,-0.05816800147,5.12000,4.40000
,,,-0.05815999955,5.12000,4.40000
,,,-0.05815200135,5.08000,4.40000
,,,-0.05814399943,5.12000,4.36000
,,,-0.05813600123,5.12000,4.40000
,,,-0.05812799931,5.12000,4.40000
,,,-0.05812000111,5.08000,4.40000
,,,-0.05811199918,5.12000,4.40000
,,,-0.05810400099,5.12000,4.40000
,,,-0.05809599906,5.12000,4.40000
,,,-0.05808800086,5.12000,4.40000
,,,-0.05807999894,5.12000,4.40000
,,,-0.05807200074,5.12000,4.40000
,,,-0.05806399882,5.12000,4.36000
,,,-0.05805600062,5.12000,4.40000
,,,-0.05804799870,5.12000,4.40000
,,,-0.05804000050,5.12000,4.40000
,,,-0.05803199857,5.12000,4.40000
,,,-0.05802400038,5.12000,4.40000
,,,-0.05801599845,5.12000,4.40000
,,,-0.05800800025,5.08000,4.36000
,,,-0.05799999833,5.12000,4.40000
,,,-0.05799200013,5.12000,4.40000
,,,-0.05798399821,5.08000,4.40000
,,,-0.05797600001,5.12000,4.44000
,,,-0.05796799809,5.12000,4.40000
,,,-0.05795999989,5.12000,4.40000
,,,-0.05795200169,5.12000,4.40000
,,,-0.05794399977,5.12000,4.40000
,,,-0.05793600157,5.12000,4.44000
,,,-0.05792799965,5.12000,4.40000
,,,-0.05792000145,5.12000,4.36000
,,,-0.05791199952,5.12000,4.36000
,,,-0.05790400133,5.12000,4.40000
,,,-0.05789599940,5.08000,4.40000
,,,-0.05788800120,5.12000,4.40000
,,,-0.05787999928,5.12000,4.40000
,,,-0.05787200108,5.12000,4.40000
,,,-0.05786399916,5.12000,4.44000
,,,-0.05785600096,5.12000,4.40000
,,,-0.05784799904,5.12000,4.44000
,,,-0.05784000084,5.12000,4.40000
,,,-0.05783199891,5.12000,4.40000
,,,-0.05782400072,5.12000,4.40000
,,,-0.05781599879,5.12000,4.40000
,,,-0.05780800059,5.12000,4.40000
,,,-0.05779999867,5.12000,4.40000
,,,-0.05779200047,5.12000,4.40000
,,,-0.05778399855,5.12000,4.40000
,,,-0.05777600035,5.08000,4.40000
,,,-0.05776799843,5.08000,4.40000
,,,-0.05776000023,5.12000,4.40000
,,,-0.05775199831,5.12000,4.40000
,,,-0.05774400011,5.08000,4.40000
,,,-0.05773599818,5.12000,4.40000
,,,-0.05772799999,5.12000,4.40000
,,,-0.05771999806,5.12000,4.40000
,,,-0.05771199986,5.12000,4.40000
,,,-0.05770400167,5.12000,4.40000
,,,-0.05769599974,5.12000,4.40000
,,,-0.05768800154,5.12000,4.40000
,,,-0.05767999962,5.12000,4.40000
,,,-0.05767200142,5.12000,4.40000
,,,-0.05766399950,5.12000,4.40000
,,,-0.05765600130,5.12000,4.40000
,,,-0.05764799938,5.12000,4.44000
,,,-0.05764000118,5.12000,4.44000
,,,-0.05763199925,5.08000,4.40000
,,,-0.05762400106,5.12000,4.40000
,,,-0.05761599913,5.12000,4.40000
,,,-0.05760800093,5.12000,4.40000
,,,-0.05759999901,5.08000,4.40000
,,,-0.05759200081,5.12000,4.40000
,,,-0.05758399889,5.12000,4.40000
,,,-0.05757600069,5.12000,4.40000
,,,-0.05756799877,5.12000,4.40000
,,,-0.05756000057,5.12000,4.40000
,,,-0.05755199865,5.08000,4.40000
,,,-0.05754400045,5.08000,4.40000
,,,-0.05753599852,5.12000,4.44000
,,,-0.05752800032,5.12000,4.40000
,,,-0.05751999840,5.12000,4.40000
,,,-0.05751200020,5.12000,4.40000
,,,-0.05750399828,5.08000,4.40000
,,,-0.05749600008,5.12000,4.44000
,,,-0.05748799816,5.12000,4.40000
,,,-0.05747999996,5.12000,4.44000
,,,-0.05747199804,5.12000,4.44000
,,,-0.05746399984,5.12000,4.40000
,,,-0.05745600164,5.12000,4.40000
,,,-0.05744799972,5.12000,4.40000
,,,-0.05744000152,5.12000,4.40000
,,,-0.05743199959,5.12000,4.44000
,,,-0.05742400140,5.12000,4.40000
,,,-0.05741599947,5.12000,4.40000
,,,-0.05740800127,5.12000,4.40000
,,,-0.05739999935,5.12000,4.40000
,,,-0.05739200115,5.08000,4.40000
,,,-0.05738399923,5.12000,4.40000
,,,-0.05737600103,5.12000,4.40000
,,,-0.05736799911,5.12000,4.40000
,,,-0.05736000091,5.12000,4.44000
,,,-0.05735199898,5.12000,4.40000
,,,-0.05734400079,5.08000,4.40000
,,,-0.05733599886,5.12000,4.40000
,,,-0.05732800066,5.08000,4.44000
,,,-0.05731999874,5.08000,4.40000
,,,-0.05731200054,5.12000,4.44000
,,,-0.05730399862,5.12000,4.40000
,,,-0.05729600042,5.12000,4.40000
,,,-0.05728799850,5.12000,4.40000
,,,-0.05728000030,5.12000,4.40000
,,,-0.05727199838,5.12000,4.44000
,,,-0.05726400018,5.12000,4.44000
,,,-0.05725599825,5.12000,4.40000
,,,-0.05724800006,5.12000,4.40000
,,,-0.05723999813,5.12000,4.40000
,,,-0.05723199993,5.12000,4.40000
,,,-0.05722399801,5.12000,4.44000
,,,-0.05721599981,5.12000,4.44000
,,,-0.05720800161,5.12000,4.40000
,,,-0.05719999969,5.12000,4.44000
,,,-0.05719200149,5.12000,4.44000
,,,-0.05718399957,5.12000,4.44000
,,,-0.05717600137,5.08000,4.40000
,,,-0.05716799945,5.12000,4.44000
,,,-0.05716000125,5.12000,4.40000
,,,-0.05715199932,5.12000,4.44000
,,,-0.05714400113,5.12000,4.40000
,,,-0.05713599920,5.12000,4.44000
,,,-0.05712800100,5.08000,4.40000
,,,-0.05711999908,5.12000,4.44000
,,,-0.05711200088,5.12000,4.40000
,,,-0.05710399896,5.12000,4.44000
,,,-0.05709600076,5.12000,4.44000
,,,-0.05708799884,5.12000,4.44000
,,,-0.05708000064,5.12000,4.40000
,,,-0.05707199872,5.12000,4.40000
,,,-0.05706400052,5.12000,4.44000
,,,-0.05705599859,5.12000,4.44000
,,,-0.05704800040,5.12000,4.44000
,,,-0.05703999847,5.12000,4.44000
,,,-0.05703200027,5.12000,4.40000
,,,-0.05702399835,5.12000,4.40000
,,,-0.05701600015,5.12000,4.40000
,,,-0.05700799823,5.12000,4.44000
,,,-0.05700000003,5.12000,4.44000
,,,-0.05699199811,5.12000,4.40000
,,,-0.05698399991,5.12000,4.44000
,,,-0.05697600171,5.12000,4.48000
,,,-0.05696799979,5.12000,4.40000
,,,-0.05696000159,5.12000,4.44000
,,,-0.05695199966,5.12000,4.44000
,,,-0.05694400147,5.12000,4.44000
,,,-0.05693599954,5.08000,4.44000
,,,-0.05692800134,5.12000,4.44000
,,,-0.05691999942,5.12000,4.44000
,,,-0.05691200122,5.12000,4.40000
,,,-0.05690399930,5.08000,4.40000
,,,-0.05689600110,5.12000,4.44000
,,,-0.05688799918,5.12000,4.44000
,,,-0.05688000098,5.12000,4.44000
,,,-0.05687199906,5.12000,4.40000
,,,-0.05686400086,5.12000,4.44000
,,,-0.05685599893,5.12000,4.44000
,,,-0.05684800074,5.12000,4.44000
,,,-0.05683999881,5.12000,4.44000
,,,-0.05683200061,5.08000,4.40000
,,,-0.05682399869,5.12000,4.44000
,,,-0.05681600049,5.08000,4.44000
,,,-0.05680799857,5.12000,4.44000
,,,-0.05680000037,5.12000,4.44000
,,,-0.05679199845,5.12000,4.48000
,,,-0.05678400025,5.12000,4.40000
,,,-0.05677599832,5.12000,4.44000
,,,-0.05676800013,5.08000,4.44000
,,,-0.05675999820,5.08000,4.44000
,,,-0.05675200000,5.12000,4.44000
,,,-0.05674399808,5.12000,4.44000
,,,-0.05673599988,5.12000,4.44000
,,,-0.05672800168,5.12000,4.44000
,,,-0.05671999976,5.12000,4.44000
,,,-0.05671200156,5.12000,4.44000
,,,-0.05670399964,5.08000,4.44000
,,,-0.05669600144,5.12000,4.44000
,,,-0.05668799952,5.12000,4.44000
,,,-0.05668000132,5.12000,4.44000
,,,-0.05667199939,5.12000,4.44000
,,,-0.05666400120,5.12000,4.44000
,,,-0.05665599927,5.12000,4.48000
,,,-0.05664800107,5.12000,4.48000
,,,-0.05663999915,5.12000,4.44000
,,,-0.05663200095,5.12000,4.44000
,,,-0.05662399903,5.12000,4.48000
,,,-0.05661600083,5.12000,4.44000
,,,-0.05660799891,5.12000,4.48000
,,,-0.05660000071,5.12000,4.44000
,,,-0.05659199879,5.08000,4.44000
,,,-0.05658400059,5.12000,4.44000
,,,-0.05657599866,5.12000,4.44000
,,,-0.05656800047,5.12000,4.44000
,,,-0.05655999854,5.12000,4.44000
,,,-0.05655200034,5.12000,4.44000
,,,-0.05654399842,5.12000,4.48000
,,,-0.05653600022,5.12000,4.44000
,,,-0.05652799830,5.12000,4.48000
,,,-0.05652000010,5.12000,4.44000
,,,-0.05651199818,5.08000,4.44000
,,,-0.05650399998,5.12000,4.44000
,,,-0.05649599805,5.12000,4.48000
,,,-0.05648799986,5.08000,4.48000
,,,-0.05648000166,5.12000,4.48000
,,,-0.05647199973,5.12000,4.48000
,,,-0.05646400154,5.12000,4.48000
,,,-0.05645599961,5.12000,4.44000
,,,-0.05644800141,5.08000,4.44000
,,,-0.05643999949,5.12000,4.44000
,,,-0.05643200129,5.12000,4.44000
,,,-0.05642399937,5.12000,4.44000
,,,-0.05641600117,5.12000,4.44000
,,,-0.05640799925,5.16000,4.44000
,,,-0.05640000105,5.08000,4.44000
,,,-0.05639199913,5.12000,4.48000
,,,-0.05638400093,5.12000,4.44000
,,,-0.05637599900,5.12000,4.48000
,,,-0.05636800081,5.12000,4.48000
,,,-0.05635999888,5.12000,4.48000
,,,-0.05635200068,5.12000,4.48000
,,,-0.05634399876,5.12000,4.48000
,,,-0.05633600056,5.08000,4.48000
,,,-0.05632799864,5.12000,4.44000
,,,-0.05632000044,5.12000,4.44000
,,,-0.05631199852,5.12000,4.48000
,,,-0.05630400032,5.12000,4.44000
,,,-0.05629599839,5.12000,4.48000
,,,-0.05628800020,5.12000,4.44000
,,,-0.05627999827,5.12000,4.48000
,,,-0.05627200007,5.12000,4.48000
,,,-0.05626399815,5.12000,4.44000
,,,-0.05625599995,5.12000,4.44000
,,,-0.05624799803,5.12000,4.44000
,,,-0.05623999983,5.12000,4.48000
,,,-0.05623200163,5.12000,4.48000
,,,-0.05622399971,5.12000,4.44000
,,,-0.05621600151,5.12000,4.44000
,,,-0.05620799959,5.12000,4.48000
,,,-0.05620000139,5.12000,4.48000
,,,-0.05619199947,5.12000,4.44000
,,,-0.05618400127,5.12000,4.48000
,,,-0.05617599934,5.12000,4.48000
,,,-0.05616800115,5.12000,4.48000
,,,-0.05615999922,5.12000,4.48000
,,,-0.05615200102,5.12000,4.48000
,,,-0.05614399910,5.12000,4.48000
,,,-0.05613600090,5.12000,4.48000
,,,-0.05612799898,5.12000,4.48000
,,,-0.05612000078,5.12000,4.44000
,,,-0.05611199886,5.12000,4.48000
,,,-0.05610400066,5.12000,4.48000
,,,-0.05609599873,5.12000,4.44000
,,,-0.05608800054,5.12000,4.48000
,,,-0.05607999861,5.12000,4.44000
,,,-0.05607200041,5.12000,4.48000
,,,-0.05606399849,5.12000,4.48000
,,,-0.05605600029,5.12000,4.44000
,,,-0.05604799837,5.12000,4.48000
,,,-0.05604000017,5.12000,4.48000
,,,-0.05603199825,5.12000,4.44000
,,,-0.05602400005,5.12000,4.48000
,,,-0.05601599813,5.12000,4.48000
,,,-0.05600799993,5.12000,4.48000
,,,-0.05599999800,5.12000,4.48000
,,,-0.05599199980,5.12000,4.48000
,,,-0.05598400161,5.12000,4.48000
,,,-0.05597599968,5.12000,4.48000
,,,-0.05596800148,5.12000,4.52000
,,,-0.05595999956,5.12000,4.48000
,,,-0.05595200136,5.12000,4.48000
,,,-0.05594399944,5.12000,4.48000
,,,-0.05593600124,5.12000,4.48000
,,,-0.05592799932,5.12000,4.48000
,,,-0.05592000112,5.12000,4.48000
,,,-0.05591199920,5.08000,4.48000
,,,-0.05590400100,5.12000,4.48000
,,,-0.05589599907,5.12000,4.48000
,,,-0.05588800088,5.12000,4.48000
,,,-0.05587999895,5.12000,4.48000
,,,-0.05587200075,5.12000,4.48000
,,,-0.05586399883,5.12000,4.48000
,,,-0.05585600063,5.12000,4.48000
,,,-0.05584799871,5.12000,4.48000
,,,-0.05584000051,5.12000,4.52000
,,,-0.05583199859,5.12000,4.48000
,,,-0.05582400039,5.12000,4.48000
,,,-0.05581599846,5.12000,4.48000
,,,-0.05580800027,5.12000,4.48000
,,,-0.05579999834,5.12000,4.48000
,,,-0.05579200014,5.12000,4.48000
,,,-0.05578399822,5.08000,4.44000
,,,-0.05577600002,5.12000,4.48000
,,,-0.05576799810,5.12000,4.52000
,,,-0.05575999990,5.08000,4.48000
,,,-0.05575200170,5.12000,4.52000
,,,-0.05574399978,5.12000,4.48000
,,,-0.05573600158,5.12000,4.48000
,,,-0.05572799966,5.12000,4.48000
,,,-0.05572000146,5.12000,4.48000
,,,-0.05571199954,5.08000,4.52000
,,,-0.05570400134,5.12000,4.48000
,,,-0.05569599941,5.12000,4.48000
,,,-0.05568800122,5.08000,4.48000
,,,-0.05567999929,5.08000,4.48000
,,,-0.05567200109,5.12000,4.48000
,,,-0.05566399917,5.12000,4.48000
,,,-0.05565600097,5.12000,4.48000
,,,-0.05564799905,5.12000,4.48000
,,,-0.05564000085,5.12000,4.52000
,,,-0.05563199893,5.12000,4.48000
,,,-0.05562400073,5.12000,4.52000
,,,-0.05561599880,5.12000,4.48000
,,,-0.05560800061,5.12000,4.52000
,,,-0.05559999868,5.12000,4.52000
,,,-0.05559200048,5.12000,4.52000
,,,-0.05558399856,5.12000,4.52000
,,,-0.05557600036,5.12000,4.48000
,,,-0.05556799844,5.12000,4.48000
,,,-0.05556000024,5.12000,4.52000
,,,-0.05555199832,5.12000,4.48000
,,,-0.05554400012,5.12000,4.48000
,,,-0.05553599820,5.12000,4.48000
,,,-0.05552800000,5.12000,4.52000
,,,-0.05551999807,5.16000,4.52000
,,,-0.05551199988,5.12000,4.48000
,,,-0.05550400168,5.12000,4.52000
,,,-0.05549599975,5.12000,4.48000
,,,-0.05548800156,5.12000,4.52000
,,,-0.05547999963,5.12000,4.52000
,,,-0.05547200143,5.12000,4.48000
,,,-0.05546399951,5.12000,4.52000
,,,-0.05545600131,5.12000,4.52000
,,,-0.05544799939,5.12000,4.48000
,,,-0.05544000119,5.12000,4.52000
,,,-0.05543199927,5.12000,4.48000
,,,-0.05542400107,5.12000,4.52000
,,,-0.05541599914,5.12000,4.52000
,,,-0.05540800095,5.12000,4.52000
,,,-0.05539999902,5.12000,4.52000
,,,-0.05539200082,5.12000,4.52000
,,,-0.05538399890,5.12000,4.52000
,,,-0.05537600070,5.12000,4.52000
,,,-0.05536799878,5.12000,4.48000
,,,-0.05536000058,5.12000,4.52000
,,,-0.05535199866,5.12000,4.52000
,,,-0.05534400046,5.12000,4.52000
,,,-0.05533599854,5.12000,4.52000
,,,-0.05532800034,5.12000,4.48000
,,,-0.05531999841,5.12000,4.52000
,,,-0.05531200022,5.12000,4.52000
,,,-0.05530399829,5.12000,4.52000
,,,-0.05529600009,5.12000,4.52000
,,,-0.05528799817,5.12000,4.52000
,,,-0.05527999997,5.12000,4.48000
,,,-0.05527199805,5.16000,4.52000
,,,-0.05526399985,5.12000,4.52000
,,,-0.05525600165,5.12000,4.52000
,,,-0.05524799973,5.12000,4.52000
,,,-0.05524000153,5.12000,4.52000
,,,-0.05523199961,5.12000,4.52000
,,,-0.05522400141,5.12000,4.52000
,,,-0.05521599948,5.12000,4.52000
,,,-0.05520800129,5.12000,4.52000
,,,-0.05519999936,5.12000,4.52000
,,,-0.05519200116,5.12000,4.52000
,,,-0.05518399924,5.12000,4.52000
,,,-0.05517600104,5.12000,4.52000
,,,-0.05516799912,5.12000,4.52000
,,,-0.05516000092,5.12000,4.52000
,,,-0.05515199900,5.12000,4.52000
,,,-0.05514400080,5.12000,4.52000
,,,-0.05513599887,5.12000,4.52000
,,,-0.05512800068,5.16000,4.52000
,,,-0.05511999875,5.12000,4.52000
,,,-0.05511200055,5.12000,4.52000
,,,-0.05510399863,5.12000,4.52000
,,,-0.05509600043,5.16000,4.52000
,,,-0.05508799851,5.12000,4.52000
,,,-0.05508000031,5.12000,4.52000
,,,-0.05507199839,5.12000,4.52000
,,,-0.05506400019,5.12000,4.52000
,,,-0.05505599827,5.08000,4.52000
,,,-0.05504800007,5.12000,4.52000
,,,-0.05503999814,5.12000,4.52000
,,,-0.05503199995,5.12000,4.52000
,,,-0.05502399802,5.12000,4.52000
,,,-0.05501599982,5.12000,4.52000
,,,-0.05500800163,5.12000,4.52000
,,,-0.05499999970,5.12000,4.52000
,,,-0.05499200150,5.12000,4.52000
,,,-0.05498399958,5.12000,4.52000
,,,-0.05497600138,5.12000,4.52000
,,,-0.05496799946,5.08000,4.52000
,,,-0.05496000126,5.12000,4.52000
,,,-0.05495199934,5.12000,4.52000
,,,-0.05494400114,5.12000,4.52000
,,,-0.05493599921,5.12000,4.52000
,,,-0.05492800102,5.12000,4.52000
,,,-0.05491999909,5.12000,4.52000
,,,-0.05491200089,5.12000,4.52000
,,,-0.05490399897,5.12000,4.52000
,,,-0.05489600077,5.12000,4.52000
,,,-0.05488799885,5.12000,4.52000
,,,-0.05488000065,5.12000,4.52000
,,,-0.05487199873,5.12000,4.52000
,,,-0.05486400053,5.12000,4.52000
,,,-0.05485599861,5.12000,4.52000
,,,-0.05484800041,5.12000,4.52000
,,,-0.05483999848,5.08000,4.52000
,,,-0.05483200029,5.12000,4.52000
,,,-0.05482399836,5.12000,4.52000
,,,-0.05481600016,5.12000,4.56000
,,,-0.05480799824,5.12000,4.52000
,,,-0.05480000004,5.12000,4.52000
,,,-0.05479199812,5.16000,4.52000
,,,-0.05478399992,5.12000,4.56000
,,,-0.05477600172,5.12000,4.52000
,,,-0.05476799980,5.12000,4.52000
,,,-0.05476000160,5.12000,4.52000
,,,-0.05475199968,5.12000,4.52000
,,,-0.05474400148,5.12000,4.52000
,,,-0.05473599955,5.12000,4.56000
,,,-0.05472800136,5.12000,4.52000
,,,-0.05471999943,5.12000,4.52000
,,,-0.05471200123,5.12000,4.52000
,,,-0.05470399931,5.12000,4.56000
,,,-0.05469600111,5.12000,4.52000
,,,-0.05468799919,5.12000,4.56000
,,,-0.05468000099,5.12000,4.52000
,,,-0.05467199907,5.12000,4.52000
,,,-0.05466400087,5.12000,4.56000
,,,-0.05465599895,5.12000,4.56000
,,,-0.05464800075,5.12000,4.52000
,,,-0.05463999882,5.12000,4.52000
,,,-0.05463200063,5.12000,4.52000
,,,-0.05462399870,5.12000,4.52000
,,,-0.05461600050,5.12000,4.56000
,,,-0.05460799858,5.12000,4.56000
,,,-0.05460000038,5.12000,4.56000
,,,-0.05459199846,5.12000,4.52000
,,,-0.05458400026,5.12000,4.52000
,,,-0.05457599834,5.12000,4.56000
,,,-0.05456800014,5.12000,4.56000
,,,-0.05455999821,5.12000,4.52000
,,,-0.05455200002,5.12000,4.56000
,,,-0.05454399809,5.12000,4.52000
,,,-0.05453599989,5.16000,4.56000
,,,-0.05452800170,5.12000,4.56000
,,,-0.05451999977,5.12000,4.56000
,,,-0.05451200157,5.12000,4.56000
,,,-0.05450399965,5.16000,4.56000
,,,-0.05449600145,5.12000,4.52000
,,,-0.05448799953,5.12000,4.56000
,,,-0.05448000133,5.12000,4.56000
,,,-0.05447199941,5.12000,4.56000
,,,-0.05446400121,5.12000,4.56000
,,,-0.05445599928,5.08000,4.52000
,,,-0.05444800109,5.12000,4.56000
,,,-0.05443999916,5.12000,4.56000
,,,-0.05443200096,5.12000,4.56000
,,,-0.05442399904,5.12000,4.52000
,,,-0.05441600084,5.12000,4.56000
,,,-0.05440799892,5.12000,4.56000
,,,-0.05440000072,5.12000,4.56000
,,,-0.05439199880,5.12000,4.56000
,,,-0.05438400060,5.12000,4.52000
,,,-0.05437599868,5.12000,4.56000
,,,-0.05436800048,5.12000,4.56000
,,,-0.05435999855,5.12000,4.52000
,,,-0.05435200036,5.12000,4.52000
,,,-0.05434399843,5.12000,4.56000
,,,-0.05433600023,5.12000,4.56000
,,,-0.05432799831,5.12000,4.56000
,,,-0.05432000011,5.12000,4.56000
,,,-0.05431199819,5.12000,4.56000
,,,-0.05430399999,5.12000,4.56000
,,,-0.05429599807,5.12000,4.52000
,,,-0.05428799987,5.12000,4.60000
,,,-0.05428000167,5.12000,4.56000
,,,-0.05427199975,5.12000,4.56000
,,,-0.05426400155,5.12000,4.56000
,,,-0.05425599962,5.12000,4.56000
,,,-0.05424800143,5.12000,4.56000
,,,-0.05423999950,5.12000,4.56000
,,,-0.05423200130,5.16000,4.56000
,,,-0.05422399938,5.12000,4.56000
,,,-0.05421600118,5.12000,4.56000
,,,-0.05420799926,5.12000,4.56000
,,,-0.05420000106,5.12000,4.56000
,,,-0.05419199914,5.12000,4.56000
,,,-0.05418400094,5.12000,4.52000
,,,-0.05417599902,5.12000,4.52000
,,,-0.05416800082,5.12000,4.56000
,,,-0.05415999889,5.12000,4.56000
,,,-0.05415200070,5.12000,4.56000
,,,-0.05414399877,5.12000,4.56000
,,,-0.05413600057,5.12000,4.56000
,,,-0.05412799865,5.12000,4.56000
,,,-0.05412000045,5.12000,4.56000
,,,-0.05411199853,5.12000,4.60000
,,,-0.05410400033,5.12000,4.56000
,,,-0.05409599841,5.12000,4.56000
,,,-0.05408800021,5.12000,4.56000
,,,-0.05407999828,5.12000,4.56000
,,,-0.05407200009,5.12000,4.56000
,,,-0.05406399816,5.12000,4.60000
,,,-0.05405599996,5.12000,4.60000
,,,-0.05404799804,5.12000,4.60000
,,,-0.05403999984,5.12000,4.56000
,,,-0.05403200164,5.12000,4.56000
,,,-0.05402399972,5.12000,4.56000
,,,-0.05401600152,5.12000,4.56000
,,,-0.05400799960,5.12000,4.56000
,,,-0.05400000140,5.12000,4.56000
,,,-0.05399199948,5.12000,4.56000
,,,-0.05398400128,5.12000,4.56000
,,,-0.05397599936,5.12000,4.56000
,,,-0.05396800116,5.08000,4.60000
,,,-0.05395999923,5.12000,4.56000
,,,-0.05395200104,5.12000,4.60000
,,,-0.05394399911,5.12000,4.56000
,,,-0.05393600091,5.12000,4.56000
,,,-0.05392799899,5.12000,4.56000
,,,-0.05392000079,5.12000,4.56000
,,,-0.05391199887,5.12000,4.60000
,,,-0.05390400067,5.12000,4.60000
,,,-0.05389599875,5.12000,4.60000
,,,-0.05388800055,5.12000,4.56000
,,,-0.05387999862,5.08000,4.60000
,,,-0.05387200043,5.12000,4.60000
,,,-0.05386399850,5.12000,4.60000
,,,-0.05385600030,5.12000,4.60000
,,,-0.05384799838,5.12000,4.56000
,,,-0.05384000018,5.12000,4.60000
,,,-0.05383199826,5.12000,4.56000
,,,-0.05382400006,5.12000,4.56000
,,,-0.05381599814,5.12000,4.60000
,,,-0.05380799994,5.12000,4.60000
,,,-0.05379999802,5.12000,4.60000
,,,-0.05379199982,5.12000,4.60000
,,,-0.05378400162,5.12000,4.60000
,,,-0.05377599970,5.12000,4.60000
